vds,vb1,vb2,vb3,vb4,vb5,vb6
0.0,-0.0,-0.0,-0.0,-0.0,-0.0,-0.0
0.05,1.38774453e-05,8.67179129e-05,0.000142793466,0.000185609784,0.000216608204,0.000237613782
0.1,2.22221174e-05,0.00016631713,0.000277842413,0.00036329874,0.000425505409,0.000467984714
0.15,2.60806889e-05,0.000239031214,0.000405401224,0.000533313245,0.000626912618,0.000691301253
0.2,2.75879387e-05,0.000305083574,0.000525713023,0.000695889418,0.000821042389,0.000907745332
0.25,2.83418123e-05,0.00036468792,0.000639010132,0.000851253544,0.00100809917,0.0011174926
0.3,2.88451809e-05,0.000418048656,0.000745514472,0.00099962244,0.00118827957,0.00132071264
0.35,2.92337114e-05,0.000465361199,0.00084543794,0.0011412038,0.00136177267,0.00151756915
0.4,2.95559758e-05,0.000506812166,0.000938982735,0.00127619654,0.00152876022,0.00170822014
0.45,2.98345657e-05,0.000542579715,0.00102634162,0.00140479113,0.00168941694,0.00189281808
0.5,3.00819495e-05,0.000572835805,0.00110769801,0.00152716992,0.00184391075,0.00207151008
0.55,3.03058136e-05,0.000597758773,0.00118322587,0.0016435075,0.00199240301,0.00224443808
0.6,3.05112671e-05,0.00061758413,0.00125308904,0.00175397092,0.00213504885,0.00241173902
0.65,3.07018946e-05,0.000632737114,0.00131743986,0.00185872001,0.00227199736,0.00257354502
0.7,3.08803158e-05,0.000643977823,0.0013764165,0.00195790742,0.00240339191,0.00272998354
0.75,3.10485068e-05,0.000652300733,0.00143013806,0.0020516786,0.00252937037,0.00288117765
0.8,3.12079975e-05,0.000658619461,0.00147869639,0.00214017152,0.00265006532,0.00302724614
0.85,3.1359997e-05,0.00066359233,0.0015221438,0.00222351595,0.00276560422,0.00316830374
0.9,3.15054785e-05,0.000667644586,0.00156047939,0.0023018322,0.00287610952,0.0033044613
0.95,3.1645237e-05,0.000671045146,0.00159365048,0.00237522886,0.00298169863,0.00343582597
1.0,3.17799306e-05,0.000673967385,0.00162161243,0.00244379918,0.00308248384,0.00356250128
1.05,3.19101103e-05,0.000676526825,0.00164448817,0.00250761511,0.00317857197,0.00368458733
1.1,3.2036242e-05,0.000678803173,0.00166274296,0.00256671807,0.00327006377,0.00380218081
1.15,3.21587235e-05,0.000680853249,0.00167716346,0.00262110522,0.00335705297,0.00391537506
1.2,3.2277897e-05,0.000682718746,0.00168862919,0.00267071209,0.00343962464,0.00402426002
1.25,3.23940588e-05,0.000684431045,0.00169790455,0.0027153982,0.00351785282,0.00412892207
1.3,3.25074676e-05,0.000686014296,0.00170556894,0.00275495811,0.0035917967,0.00422944385
1.35,3.26183504e-05,0.000687487444,0.00171203592,0.00278919808,0.00366149487,0.00432590377
1.4,3.27269072e-05,0.000688865606,0.001717596,0.0028180969,0.00372695686,0.00441837542
1.45,3.28333157e-05,0.000690161022,0.00172245454,0.00284196544,0.00378815094,0.00450692653
1.5,3.29377339e-05,0.000691383735,0.00172675907,0.00286144921,0.00384498849,0.0045916176
1.55,3.30403035e-05,0.000692542085,0.00173061767,0.00287735728,0.00389730819,0.00467249965
1.6,3.31411513e-05,0.000693643066,0.00173411115,0.00289046944,0.00394487186,0.0047496111
1.65,3.32403921e-05,0.0006946926,0.0017373011,0.0029014335,0.00398739653,0.00482297315
1.7,3.33381294e-05,0.000695695745,0.00174023533,0.00291074771,0.00402465068,0.00489258302
1.75,3.34344573e-05,0.000696656853,0.00174295152,0.00291878267,0.00405660313,0.00495840467
1.8,3.35294615e-05,0.000697579694,0.00174547986,0.0029258117,0.00408353599,0.00502035644
1.85,3.36232202e-05,0.000698467559,0.00174784484,0.00293203737,0.00410602265,0.005078297
1.9,3.3715805e-05,0.000699323331,0.00175006656,0.00293761148,0.00412478569,0.00513201467
1.95,3.38072817e-05,0.000700149554,0.00175216172,0.00294264942,0.0041405432,0.00518123223
2.0,3.38977108e-05,0.000700948484,0.00175414429,0.00294724021,0.00415391805,0.00522564761
2.05,3.39871484e-05,0.000701722127,0.00175602613,0.00295145353,0.00416541136,0.00526502511
2.1,3.40756464e-05,0.000702472279,0.00175781732,0.0029553447,0.00417541156,0.00529931693
2.15,3.41632531e-05,0.00070320055,0.00175952654,0.00295895822,0.00418421541,0.0053287459
2.2,3.42500136e-05,0.000703908393,0.0017611613,0.00296233029,0.00419204934,0.0053537864
2.25,3.43359705e-05,0.000704597122,0.00176272813,0.00296549072,0.00419908717,0.00537505726
2.3,3.44211637e-05,0.000705267926,0.00176423274,0.00296846429,0.00420546358,0.00539319962
2.35,3.45056316e-05,0.00070592189,0.00176568017,0.00297127179,0.00421128416,0.00540879483
2.4,3.45894107e-05,0.000706560004,0.00176707489,0.00297393081,0.00421663263,0.00542233072
2.45,3.46725368e-05,0.000707183176,0.00176842085,0.00297645638,0.00422157616,0.00543419974
2.5,3.47550445e-05,0.000707792239,0.00176972158,0.00297886138,0.00422616924,0.00544471128
2.55,3.48369684e-05,0.000708387963,0.00177098025,0.00298115696,0.00423045657,0.00545410766
2.6,3.49183432e-05,0.000708971061,0.00177219971,0.00298335284,0.00423447514,0.00546257885
2.65,3.49992043e-05,0.000709542196,0.00177338254,0.0029854575,0.00423825588,0.0054702747
2.7,3.50795879e-05,0.00071010199,0.00177453106,0.00298747842,0.00424182486,0.00547731434
2.75,3.51595319e-05,0.00071065103,0.0017756474,0.00298942221,0.0042452042,0.00548379336
2.8,3.52390763e-05,0.000711189871,0.00177673348,0.00299129472,0.00424841287,0.00548978923
2.85,3.53182637e-05,0.00071171905,0.00177779107,0.0029931012,0.00425146716,0.00549536529
2.9,3.53971398e-05,0.000712239083,0.0017788218,0.00299484632,0.00425438124,0.00550057386
2.95,3.5475754e-05,0.000712750482,0.00177982717,0.0029965343,0.00425716744,0.0055054585
3.0,3.555416e-05,0.000713253753,0.00178080858,0.00299816893,0.00425983657,0.00551005581
3.05,3.56324163e-05,0.00071374941,0.00178176731,0.00299975365,0.00426239817,0.00551439675
3.1,3.57105869e-05,0.000714237978,0.00178270458,0.0030012916,0.00426486067,0.00551850772
3.15,3.57887421e-05,0.000714720006,0.00178362156,0.0030027856,0.00426723156,0.00552241139
3.2,3.58669585e-05,0.000715196069,0.00178451934,0.00300423827,0.00426951755,0.00552612733
3.25,3.59453204e-05,0.000715666784,0.001785399,0.00300565201,0.00427172463,0.00552967257
3.3,3.60239197e-05,0.000716132814,0.00178626159,0.00300702901,0.0042738582,0.00553306197
3.35,3.6102857e-05,0.000716594881,0.00178710815,0.00300837133,0.00427592314,0.00553630858
3.4,3.61822418e-05,0.000717053772,0.00178793975,0.00300968089,0.00427792385,0.00553942393
3.45,3.62621935e-05,0.000717510354,0.00178875746,0.00301095948,0.00427986436,0.00554241823
3.5,3.63428417e-05,0.000717965583,0.00178956245,0.00301220881,0.00428174832,0.00554530058
3.55,3.64243268e-05,0.000718420513,0.0017903559,0.00301343053,0.00428357909,0.00554807911
3.6,3.65068005e-05,0.000718876306,0.00179113912,0.00301462625,0.00428535975,0.0055507611
3.65,3.65904264e-05,0.000719334249,0.00179191351,0.00301579755,0.00428709316,0.00555335314
3.7,3.66753804e-05,0.000719795759,0.00179268062,0.00301694602,0.00428878195,0.00555586114
3.75,3.67618512e-05,0.000720262394,0.00179344213,0.00301807329,0.00429042862,0.00555829049
3.8,3.68500407e-05,0.000720735869,0.00179419994,0.00301918104,0.00429203551,0.00556064609
3.85,3.69401644e-05,0.000721218062,0.00179495612,0.00302027105,0.00429360486,0.0055629324
3.9,3.70324519e-05,0.000721711024,0.001795713,0.00302134525,0.00429513885,0.00556515352
3.95,3.71271471e-05,0.000722216993,0.00179647314,0.00302240569,0.00429663958,0.00556731323
4.0,3.72245084e-05,0.000722738401,0.00179723942,0.00302345465,0.00429810919,0.005569415
4.05,3.73248093e-05,0.000723277883,0.001798015,0.00302449461,0.00429954982,0.00557146211
4.1,3.74283382e-05,0.000723838288,0.0017988034,0.00302552837,0.00430096369,0.00557345759
4.15,3.75353991e-05,0.000724422685,0.00179960849,0.00302655899,0.00430235312,0.00557540434
4.2,3.76463113e-05,0.000725034373,0.00180043455,0.00302758993,0.00430372058,0.00557730513
4.25,3.77614099e-05,0.000725676887,0.00180128626,0.00302862504,0.00430506876,0.00557916264
4.3,3.78810457e-05,0.000726354004,0.00180216875,0.00302966859,0.00430640058,0.00558097953
4.35,3.80055853e-05,0.000727069751,0.00180308761,0.00303072536,0.00430771925,0.00558275846
4.4,3.81354112e-05,0.00072782841,0.00180404895,0.00303180066,0.00430902836,0.00558450211
4.45,3.82709218e-05,0.000728634521,0.00180505935,0.00303290037,0.00431033188,0.0055862133
4.5,3.84125313e-05,0.000729492889,0.00180612595,0.003034031,0.00431163428,0.00558789499
4.55,3.85606696e-05,0.000730408584,0.00180725644,0.00303519971,0.00431294052,0.00558955036
4.6,3.87157826e-05,0.000731386947,0.00180845908,0.00303641438,0.00431425618,0.00559118283
4.65,3.88783316e-05,0.000732433589,0.00180974272,0.00303768365,0.00431558748,0.00559279618
4.7,3.90487932e-05,0.000733554396,0.00181111683,0.00303901694,0.00431694134,0.0055943946
4.75,3.92276597e-05,0.000734755527,0.00181259148,0.00304042448,0.00431832547,0.00559598272
4.8,3.94154383e-05,0.000736043415,0.00181417737,0.0030419174,0.00431974844,0.00559756574
4.85,3.9612651e-05,0.000737424767,0.00181588587,0.00304350772,0.00432121968,0.00559914947
4.9,3.98198347e-05,0.000738906562,0.00181772899,0.0030452084,0.00432274962,0.00560074041
4.95,4.00375408e-05,0.000740496049,0.00181971938,0.00304703334,0.0043243497,0.00560234585
5.0,4.02663345e-05,0.000742200747,0.00182187039,0.00304899748,0.00432603246,0.00560397393
5.05,4.05067953e-05,0.00074402844,0.00182419601,0.00305111675,0.00432781156,0.00560563374
5.1,4.07595161e-05,0.000745987175,0.00182671094,0.00305340813,0.00432970187,0.00560733536
5.15,4.1025103e-05,0.000748085256,0.00182943051,0.00305588967,0.00433171951,0.00560909001
5.2,4.13041753e-05,0.000750331244,0.00183237075,0.0030585805,0.0043338819,0.00561091008
5.25,4.15973647e-05,0.000752733946,0.00183554837,0.00306150085,0.00433620778,0.00561280922
5.3,4.19053151e-05,0.000755302417,0.00183898072,0.00306467205,0.00433871732,0.00561480243
5.35,4.22286825e-05,0.000758045949,0.00184268584,0.00306811657,0.00434143208,0.00561690612
5.4,4.25681343e-05,0.000760974067,0.00184668242,0.00307185799,0.00434437511,0.0056191382
5.45,4.29243491e-05,0.000764096525,0.00185098977,0.00307592103,0.00434757092,0.00562151814
5.5,4.32980162e-05,0.000767423295,0.00185562789,0.00308033153,0.00435104557,0.00562406705
5.55,4.36898353e-05,0.000770964563,0.00186061737,0.00308511647,0.00435482666,0.0056268077
5.6,4.41005162e-05,0.000774730724,0.00186597943,0.00309030394,0.00435894336,0.00562976465
5.65,4.45307781e-05,0.00077873237,0.00187173591,0.00309592319,0.00436342641,0.00563296426
5.7,4.49813494e-05,0.000782980285,0.00187790922,0.00310200452,0.00436830817,0.00563643473
5.75,4.54529674e-05,0.000787485438,0.00188452236,0.00310857939,0.00437362257,0.00564020617
5.8,4.59463777e-05,0.000792258976,0.0018915989,0.00311568031,0.00437940517,0.00564431066
5.85,4.6462334e-05,0.000797312214,0.00189916294,0.00312334086,0.00438569314,0.00564878223
5.9,4.70015973e-05,0.000802656625,0.00190723913,0.00313159569,0.00439252525,0.00565365692
5.95,4.75649361e-05,0.00080830384,0.00191585261,0.00314048048,0.00439994186,0.00565897284
6.0,4.81531254e-05,0.00081426563,0.00192502904,0.0031500319,0.00440798492,0.00566477011
6.05,4.87669466e-05,0.000820553905,0.00193479455,0.00316028765,0.00441669798,0.00567109096
6.1,4.94071874e-05,0.000827180703,0.00194517571,0.00317128635,0.00442612611,0.00567797968
6.15,5.00746407e-05,0.000834158183,0.00195619955,0.0031830676,0.00443631594,0.00568548266
6.2,5.07701048e-05,0.000841498613,0.00196789352,0.00319567188,0.0044473156,0.00569364836
6.25,5.14943828e-05,0.000849214369,0.00198028545,0.00320914058,0.00445917474,0.00570252734
6.3,5.22482822e-05,0.000857317921,0.00199340358,0.00322351592,0.00447194443,0.00571217223
6.35,5.30326146e-05,0.000865821826,0.00200727648,0.00323884096,0.00448567718,0.0057226377
6.4,5.38481954e-05,0.000874738722,0.00202193307,0.00325515956,0.00450042692,0.00573398047
6.45,5.46958431e-05,0.00088408132,0.0020374026,0.00327251633,0.00451624891,0.0057462593
6.5,5.55763795e-05,0.000893862393,0.0020537146,0.0032909566,0.00453319975,0.00575953491
6.55,5.64906288e-05,0.000904094772,0.0020708989,0.00331052642,0.00455133732,0.00577386998
6.6,5.74394177e-05,0.000914791338,0.00208898556,0.00333127247,0.00457072074,0.00578932914
