vds,vb1,vb2,vb3,vb4,vb5,vb6
0.0,-0.0,-0.0,-0.0,-0.0,-0.0,-0.0
0.05,2.20134835e-05,0.000123541971,0.000198696728,0.000255625637,0.000296757631,0.000324647311
0.1,3.51778224e-05,0.000235276874,0.00038417607,0.000497496686,0.000579969412,0.000636462719
0.15,4.14793211e-05,0.000335804022,0.0005570895,0.000726246846,0.000850206731,0.000935936048
0.2,4.43892538e-05,0.000425681442,0.000718044914,0.000942470587,0.00110800878,0.00122353223
0.25,4.61798699e-05,0.000505428013,0.000867609133,0.00114672539,0.00135388432,0.00149969261
0.3,4.75388594e-05,0.000575524631,0.00100631013,0.00133953372,0.00158831321,0.001764836
0.35,4.86718721e-05,0.000636413096,0.00113463906,0.0015213849,0.00181174778,0.00201935977
0.4,4.9663133e-05,0.000688490719,0.00125305185,0.00169273701,0.00202461429,0.0022636407
0.45,5.05561231e-05,0.000732101698,0.00136196995,0.00185401867,0.00222731426,0.00249803602
0.5,5.13766409e-05,0.000767551903,0.00146177911,0.00200563077,0.00242022592,0.00272288432
0.55,5.21414051e-05,0.000795255493,0.00155282484,0.00214794782,0.00260370562,0.00293850652
0.6,5.28619259e-05,0.00081609793,0.00163540162,0.00228131863,0.00277808921,0.00314520692
0.65,5.3546488e-05,0.000831575521,0.00170973173,0.00240606594,0.0029436932,0.00334327416
0.7,5.42012615e-05,0.000843297085,0.00177592911,0.00252248426,0.00310081569,0.00353298218
0.75,5.48309686e-05,0.000852500131,0.00183395398,0.00263083487,0.00324973699,0.00371459111
0.8,5.54393053e-05,0.000859995605,0.00188361039,0.00273133599,0.00339071946,0.00388834808
0.85,5.60292189e-05,0.00086629376,0.0019247281,0.00282414539,0.00352400658,0.0040544878
0.9,5.66030972e-05,0.000871720338,0.00195760317,0.00290933146,0.00364982055,0.004213233
0.95,5.71629018e-05,0.000876490276,0.00198330481,0.00298683034,0.00376835781,0.00436479447
1.0,5.77102636e-05,0.000880750624,0.00200338482,0.00305639885,0.00387978117,0.00450937067
1.05,5.82465524e-05,0.000884605472,0.00201933537,0.00311761259,0.00398420682,0.00464714676
1.1,5.87729304e-05,0.000888130756,0.00203231336,0.00317002064,0.00408168345,0.00477829256
1.15,5.92903911e-05,0.000891383357,0.00204313448,0.00321352596,0.00417216092,0.00490295928
1.2,5.97997909e-05,0.000894406868,0.00205235803,0.00324875195,0.00425544874,0.00502127397
1.25,6.03018726e-05,0.000897235369,0.00206036921,0.00327698038,0.00433117857,0.00513333083
1.3,6.07972847e-05,0.000899895974,0.0020674382,0.00329971439,0.00439881749,0.00523917776
1.35,6.12865966e-05,0.000902410579,0.00207375886,0.00331829752,0.00445781742,0.00533879597
1.4,6.17703109e-05,0.000904797114,0.00207947356,0.00333377496,0.00450793775,0.00543207124
1.45,6.2248873e-05,0.000907070431,0.00208468921,0.00334691109,0.00454956331,0.00551875851
1.5,6.27226799e-05,0.000909242968,0.00208948767,0.00335825422,0.00458371441,0.00559845296
1.55,6.31920865e-05,0.000911325238,0.00209393284,0.00336819866,0.00461173205,0.00567060421
1.6,6.36574116e-05,0.000913326209,0.00209807536,0.00337703162,0.00463492891,0.00573463446
1.65,6.41189422e-05,0.000915253584,0.00210195601,0.00338496579,0.00465440415,0.00579018892
1.7,6.45769378e-05,0.000917114031,0.00210560801,0.00339216155,0.0046710083,0.00583740881
1.75,6.50316339e-05,0.000918913359,0.00210905878,0.00339874195,0.00468537748,0.00587700963
1.8,6.54832444e-05,0.000920656659,0.00211233118,0.00340480297,0.00469798321,0.00591009184
1.85,6.59319647e-05,0.000922348413,0.00211544445,0.00341042064,0.00470917647,0.00593785125
1.9,6.63779733e-05,0.000923992593,0.00211841493,0.00341565601,0.00471922137,0.00596137204
1.95,6.68214341e-05,0.000925592731,0.00212125659,0.00342055873,0.00472831933,0.00598154508
2.0,6.72624976e-05,0.000927151982,0.0021239815,0.00342516965,0.00473662622,0.00599906692
2.05,6.77013029e-05,0.000928673179,0.00212660012,0.00342952273,0.00474426436,0.00601447085
2.1,6.81379785e-05,0.000930158869,0.00212912158,0.00343364648,0.00475133107,0.00602816333
2.15,6.85726439e-05,0.000931611355,0.00213155389,0.00343756503,0.00475790477,0.00604045552
2.2,6.90054103e-05,0.000933032727,0.00213390413,0.00344129899,0.0047640494,0.00605158778
2.25,6.94363823e-05,0.000934424882,0.00213617859,0.00344486605,0.00476981765,0.00606174786
2.3,6.98656578e-05,0.000935789554,0.00213838284,0.00344828155,0.00477525338,0.00607108415
2.35,7.02933303e-05,0.000937128329,0.00214052189,0.00345155882,0.00478039344,0.00607971536
2.4,7.07194887e-05,0.000938442663,0.00214260023,0.00345470955,0.00478526903,0.00608773751
2.45,7.11442188e-05,0.000939733897,0.0021446219,0.00345774402,0.00478990682,0.00609522915
2.5,7.15676045e-05,0.000941003271,0.00214659056,0.00346067135,0.00479432971,0.00610225516
2.55,7.1989728e-05,0.000942251938,0.00214850953,0.0034634996,0.00479855752,0.00610886965
2.6,7.24106718e-05,0.00094348097,0.00215038184,0.00346623601,0.00480260752,0.00611511814
2.65,7.2830519e-05,0.000944691376,0.00215221024,0.00346888703,0.00480649482,0.00612103924
2.7,7.32493548e-05,0.000945884106,0.00215399727,0.00347145849,0.00481023273,0.00612666593
2.75,7.36672675e-05,0.000947060066,0.00215574526,0.00347395563,0.00481383301,0.00613202657
2.8,7.40843498e-05,0.000948220125,0.00215745635,0.00347638321,0.00481730611,0.00613714574
2.85,7.45007002e-05,0.000949365126,0.00215913255,0.00347874555,0.00482066136,0.00614204483
2.9,7.4916424e-05,0.000950495897,0.00216077571,0.0034810466,0.00482390711,0.00614674259
2.95,7.53316349e-05,0.000951613261,0.00216238761,0.00348328995,0.00482705085,0.00615125549
3.0,7.57464564e-05,0.000952718048,0.00216396988,0.00348547893,0.00483009938,0.00615559814
3.05,7.6161023e-05,0.000953811104,0.00216552413,0.00348761659,0.00483305883,0.00615978349
3.1,7.65754821e-05,0.000954893307,0.00216705189,0.00348970577,0.00483593475,0.00616382311
3.15,7.69899954e-05,0.000955965574,0.00216855467,0.00349174911,0.00483873224,0.00616772734
3.2,7.74047402e-05,0.000957028881,0.00217003397,0.0034937491,0.00484145595,0.0061715055
3.25,7.78199112e-05,0.000958084269,0.00217149128,0.0034957081,0.00484411013,0.00617516598
3.3,7.82357221e-05,0.000959132864,0.00217292815,0.00349762836,0.00484669873,0.00617871639
3.35,7.8652407e-05,0.000960175888,0.0021743462,0.00349951207,0.00484922541,0.00618216363
3.4,7.90702223e-05,0.000961214673,0.00217574709,0.00350136138,0.00485169357,0.006185514
3.45,7.9489448e-05,0.000962250678,0.00217713264,0.00350317843,0.00485410641,0.00618877325
3.5,7.99103893e-05,0.000963285504,0.00217850477,0.00350496539,0.00485646699,0.00619194666
3.55,8.03333785e-05,0.000964320907,0.00217986559,0.00350672449,0.00485877821,0.00619503912
3.6,8.0758776e-05,0.000965358816,0.00218121742,0.00350845806,0.00486104291,0.00619805515
3.65,8.11869721e-05,0.000966401346,0.00218256277,0.00351016857,0.00486326388,0.00620099896
3.7,8.16183883e-05,0.000967450814,0.00218390446,0.00351185867,0.00486544391,0.00620387451
3.75,8.2053479e-05,0.000968509755,0.00218524555,0.00351353123,0.00486758583,0.00620668557
3.8,8.24927324e-05,0.000969580935,0.00218658948,0.00351518941,0.00486969258,0.00620943575
3.85,8.29366722e-05,0.000970667365,0.00218794,0.00351683666,0.00487176723,0.00621212853
3.9,8.33858586e-05,0.000971772317,0.00218930129,0.00351847682,0.00487381306,0.00621476736
3.95,8.38408895e-05,0.000972899335,0.00219067795,0.00352011411,0.00487583358,0.0062173557
4.0,8.43024018e-05,0.00097405225,0.00219207501,0.00352175325,0.00487783266,0.00621989703
4.05,8.47710722e-05,0.00097523519,0.00219349802,0.00352339948,0.00487981451,0.00622239498
4.1,8.52476183e-05,0.000976452591,0.00219495304,0.00352505857,0.00488178379,0.00622485335
4.15,8.57327995e-05,0.000977709211,0.0021964467,0.00352673696,0.00488374566,0.00622727618
4.2,8.62274177e-05,0.000979010137,0.00219798619,0.00352844174,0.00488570589,0.00622966784
4.25,8.67323182e-05,0.000980360795,0.00219957932,0.00353018074,0.00488767085,0.00623203309
4.3,8.72483904e-05,0.000981766957,0.00220123455,0.00353196257,0.00488964767,0.00623437717
4.35,8.77765682e-05,0.00098323475,0.00220296099,0.00353379666,0.00489164424,0.00623670586
4.4,8.83178308e-05,0.000984770664,0.00220476845,0.00353569332,0.00489366933,0.00623902559
4.45,8.88732028e-05,0.000986381552,0.00220666744,0.0035376638,0.00489573265,0.0062413435
4.5,8.94437549e-05,0.00098807464,0.00220866922,0.00353972032,0.0048978449,0.00624366756
4.55,9.00306039e-05,0.000989857529,0.00221078578,0.00354187612,0.00490001788,0.00624600665
4.6,9.06349134e-05,0.000991738197,0.0022130299,0.00354414548,0.00490226453,0.00624837061
4.65,9.12578934e-05,0.000993725002,0.00221541512,0.00354654379,0.00490459901,0.00625077043
4.7,9.19008007e-05,0.000995826683,0.0022179558,0.00354908758,0.00490703674,0.00625321822
4.75,9.25649389e-05,0.00099805236,0.00222066709,0.00355179454,0.00490959454,0.00625572741
4.8,9.32516582e-05,0.00100041153,0.00222356497,0.00355468355,0.00491229057,0.00625831278
4.85,9.39623555e-05,0.00100291408,0.00222666622,0.00355777473,0.00491514452,0.00626099055
4.9,9.46984741e-05,0.00100557026,0.00222998848,0.00356108944,0.00491817754,0.0062637785
4.95,9.54615036e-05,0.0010083907,0.00223355019,0.0035646503,0.0049214124,0.00626669603
5.0,9.62529794e-05,0.00101138641,0.00223737064,0.00356848124,0.00492487343,0.00626976424
5.05,9.70744825e-05,0.00101456874,0.00224146995,0.00357260746,0.00492858666,0.00627300604
5.1,9.79276392e-05,0.00101794943,0.00224586905,0.0035770555,0.00493257979,0.00627644616
5.15,9.88141204e-05,0.00102154056,0.00225058973,0.0035818532,0.00493688226,0.00628011128
5.2,9.97356414e-05,0.00102535456,0.00225565455,0.00358702975,0.00494152526,0.00628403008
5.25,0.000100693961,0.00102940421,0.00226108692,0.00359261564,0.00494654175,0.00628823326
5.3,0.000101690882,0.00103370261,0.00226691102,0.00359864269,0.0049519665,0.00629275365
5.35,0.000102728249,0.0010382632,0.00227315184,0.00360514406,0.00495783609,0.00629762624
5.4,0.000103807948,0.00104309974,0.00227983513,0.0036121542,0.00496418894,0.00630288819
5.45,0.000104931908,0.00104822629,0.0022869874,0.00361970886,0.00497106528,0.00630857891
5.5,0.000106102097,0.00105365723,0.00229463592,0.00362784511,0.00497850718,0.00631474008
5.55,0.000107320523,0.0010594072,0.00230280868,0.00363660126,0.00498655856,0.00632141567
5.6,0.000108589234,0.00106549117,0.00231153439,0.00364601689,0.00499526514,0.00632865196
5.65,0.000109910315,0.00107192433,0.00232084244,0.00365613282,0.00500467447,0.00633649755
5.7,0.000111285891,0.00107872217,0.00233076292,0.00366699108,0.00501483588,0.00634500339
5.75,0.00011271812,0.00108590042,0.00234132654,0.00367863487,0.00502580052,0.00635422276
5.8,0.000114209198,0.00109347506,0.00235256467,0.00369110859,0.00503762126,0.00636421128
5.85,0.000115761355,0.00110146229,0.00236450928,0.00370445774,0.00505035272,0.0063750269
5.9,0.000117376858,0.00110987853,0.00237719294,0.00371872894,0.00506405124,0.00638672988
5.95,0.000119058002,0.00111874043,0.00239064877,0.00373396987,0.00507877482,0.00639938279
6.0,0.000120807119,0.00112806482,0.00240491044,0.00375022928,0.0050945831,0.00641305047
6.05,0.00012262657,0.00113786871,0.00242001215,0.00376755688,0.00511153734,0.0064278
6.1,0.000124518747,0.00114816933,0.00243598858,0.00378600339,0.00512970035,0.00644370069
6.15,0.000126486072,0.00115898402,0.00245287488,0.00380562045,0.00514913647,0.00646082403
6.2,0.000128530995,0.00117033032,0.00247070666,0.0038264606,0.00516991152,0.00647924365
6.25,0.000130655994,0.0011822259,0.00248951994,0.00384857723,0.00519209275,0.00649903527
6.3,0.000132863574,0.00119468855,0.00250935115,0.00387202457,0.00521574881,0.00652027667
6.35,0.000135156266,0.00120773622,0.00253023708,0.00389685761,0.00524094966,0.00654304765
6.4,0.000137536626,0.00122138693,0.00255221487,0.00392313211,0.00526776659,0.00656742992
6.45,0.000140007233,0.00123565883,0.00257532199,0.00395090451,0.00529627209,0.00659350712
6.5,0.000142570691,0.00125057016,0.0025995962,0.00398023194,0.00532653986,0.00662136471
6.55,0.000145229625,0.00126613924,0.00262507554,0.00401117213,0.00535864471,0.00665108993
6.6,0.000147986681,0.00128238446,0.00265179829,0.00404378341,0.00539266254,0.00668277174
