vds,vb1,vb2,vb3,vb4,vb5,vb6
0.0,-0.0,-0.0,-0.0,-0.0,-0.0,-0.0
0.05,6.6839045e-06,4.30458879e-05,7.10285023e-05,9.24078498e-05,0.000107908549,0.000118438377
0.1,1.06363811e-05,8.25545548e-05,0.000138211061,0.000180882708,0.000211987694,0.000233278622
0.15,1.24131115e-05,0.000118641245,0.000201673192,0.000265546159,0.000312346544,0.00034461383
0.2,1.30986606e-05,0.000151416239,0.000261534892,0.000346514758,0.000409090061,0.000452533895
0.25,1.34465742e-05,0.000180985078,0.000317910858,0.000423900232,0.000502319223,0.00055712562
0.3,1.36816997e-05,0.000207448766,0.000370910688,0.000497809662,0.000592131168,0.000658472824
0.35,1.38644304e-05,0.000230903947,0.000420639058,0.000568345647,0.000678619318,0.000756656437
0.4,1.40166429e-05,0.000251443034,0.000467195886,0.000635606471,0.000761873505,0.000851754582
0.45,1.41486182e-05,0.000269154472,0.000510676458,0.00069968627,0.000841980091,0.000943842662
0.5,1.42660727e-05,0.000284124062,0.000551171486,0.00076067519,0.000919022095,0.00103299344
0.55,1.43725495e-05,0.0002964417,0.000588767034,0.000818659552,0.000993079317,0.00111927714
0.6,1.44704132e-05,0.000306227544,0.000623544228,0.000873721993,0.00106422847,0.0012027615
0.65,1.45613281e-05,0.000313698564,0.000655578578,0.000925941579,0.00113254332,0.00128351188
0.7,1.46465134e-05,0.000319238293,0.000684938674,0.000975393869,0.0011980948,0.00136159139
0.75,1.47268911e-05,0.000323342328,0.000711683837,0.0010221509,0.00126095114,0.00143706093
0.8,1.48031757e-05,0.000326461769,0.000735860147,0.00106628103,0.00132117795,0.00150997929
0.85,1.48759332e-05,0.000328920022,0.000757494456,0.00110784863,0.00137883837,0.00158040328
0.9,1.49456193e-05,0.000330925608,0.000776587724,0.00114691347,0.00143399303,0.00164838779
0.95,1.5012607e-05,0.000332610385,0.000793115549,0.00118352962,0.00148670014,0.00171398589
1.0,1.50772052e-05,0.000334059428,0.000807056962,0.00121774373,0.00153701536,0.00177724886
1.05,1.51396728e-05,0.000335329481,0.000818472195,0.00124959216,0.00158499171,0.0018382263
1.1,1.52002289e-05,0.000336459737,0.00082758941,0.00127909649,0.00163067925,0.00189696614
1.15,1.52590605e-05,0.000337478162,0.000834796574,0.00130625697,0.00167412464,0.00195351466
1.2,1.53163289e-05,0.000338405296,0.000840529636,0.00133104391,0.00171537036,0.00200791648
1.25,1.53721737e-05,0.000339256614,0.000845168861,0.00135339044,0.00175445357,0.00206021449
1.3,1.54267166e-05,0.000340044031,0.000849003118,0.00137319687,0.00179140426,0.00211044975
1.35,1.54800648e-05,0.000340776902,0.000852238856,0.00139036637,0.00182624258,0.00215866126
1.4,1.55323126e-05,0.000341462694,0.000855021196,0.00140488257,0.0018589747,0.00220488571
1.45,1.55835439e-05,0.000342107459,0.00085745276,0.00141689023,0.00188958703,0.00224915696
1.5,1.56338332e-05,0.000342716164,0.000859607284,0.00142670182,0.00191803851,0.00229150538
1.55,1.56832474e-05,0.000343292936,0.000861538798,0.00143471625,0.00194425279,0.00233195682
1.6,1.57318465e-05,0.000343841235,0.000863287701,0.00144132222,0.00196811529,0.00237053108
1.65,1.57796847e-05,0.000344363996,0.000864884786,0.00144684484,0.00198948701,0.00240723976
1.7,1.58268108e-05,0.000344863722,0.000866353952,0.00145153502,0.0020082492,0.00244208302
1.75,1.58732695e-05,0.000345342571,0.000867714049,0.00145557978,0.00202437584,0.00247504515
1.8,1.59191011e-05,0.000345802412,0.000868980168,0.00145911713,0.00203799313,0.00250608858
1.85,1.59643427e-05,0.000346244875,0.000870164554,0.00146224937,0.00204937492,0.00253514705
1.9,1.60090282e-05,0.000346671391,0.000871277261,0.00146505317,0.0020588759,0.00256211983
1.95,1.60531886e-05,0.000347083222,0.000872326637,0.00146758679,0.00206685418,0.00258687292
2.0,1.60968526e-05,0.000347481485,0.000873319679,0.00146989515,0.00207362336,0.00260925669
2.05,1.61400468e-05,0.000347867178,0.000874262309,0.00147201342,0.00207943715,0.00262914824
2.1,1.61827958e-05,0.000348241191,0.000875159576,0.00147396949,0.00208449279,0.00264651106
2.15,1.62251223e-05,0.000348604324,0.000876015818,0.00147578581,0.00208894116,0.00266144002
2.2,1.62670478e-05,0.000348957298,0.00087683479,0.00147748061,0.00209289747,0.00267415808
2.25,1.63085924e-05,0.000349300764,0.00087761976,0.00147906893,0.00209645011,0.00268496676
2.3,1.63497752e-05,0.000349635315,0.00087837359,0.00148056324,0.0020996676,0.00269418492
2.35,1.63906142e-05,0.000349961489,0.0008790988,0.00148197401,0.00210260358,0.00270210532
2.4,1.64311269e-05,0.000350279778,0.000879797619,0.00148331011,0.00210530058,0.00270897548
2.45,1.64713302e-05,0.000350590632,0.000880472028,0.0014845791,0.00210779271,0.00271499538
2.5,1.65112405e-05,0.000350894466,0.000881123796,0.00148578746,0.00211010762,0.00272032303
2.55,1.65508744e-05,0.000351191662,0.000881754508,0.00148694081,0.00211226797,0.00272508231
2.6,1.65902482e-05,0.000351482574,0.00088236559,0.00148804403,0.00211429252,0.00272937037
2.65,1.6629379e-05,0.000351767533,0.000882958329,0.0014891014,0.00211619693,0.00273326381
2.7,1.66682839e-05,0.000352046848,0.000883533891,0.00149011668,0.00211799439,0.0027368235
2.75,1.6706981e-05,0.000352320809,0.000884093338,0.00149109318,0.00211969613,0.00274009826
2.8,1.67454895e-05,0.000352589695,0.000884637635,0.00149203386,0.00212131172,0.00274312761
2.85,1.67838296e-05,0.00035285377,0.000885167668,0.00149294135,0.00212284941,0.00274594387
2.9,1.68220232e-05,0.000353113293,0.000885684251,0.00149381801,0.00212431637,0.0027485737
2.95,1.6860094e-05,0.000353368517,0.000886188133,0.00149466595,0.00212571883,0.00275103927
3.0,1.68980675e-05,0.000353619695,0.000886680012,0.00149548708,0.00212706225,0.00275335922
3.05,1.69359718e-05,0.000353867083,0.000887160536,0.00149628314,0.00212835145,0.00275554929
3.1,1.69738376e-05,0.000354110941,0.000887630315,0.00149705568,0.00212959069,0.00275762291
3.15,1.70116983e-05,0.000354351542,0.000888089926,0.00149780615,0.00213078376,0.00275959159
3.2,1.70495907e-05,0.000354589173,0.000888539923,0.00149853586,0.00213193403,0.00276146528
3.25,1.70875551e-05,0.000354824141,0.00088898084,0.00149924599,0.00213304454,0.00276325261
3.3,1.71256355e-05,0.000355056776,0.000889413203,0.00149993768,0.002134118,0.00276496113
3.35,1.716388e-05,0.000355287436,0.000889837535,0.00150061193,0.00213515689,0.00276659746
3.4,1.7202341e-05,0.000355516514,0.000890254364,0.00150126972,0.00213616343,0.00276816744
3.45,1.72410756e-05,0.000355744441,0.000890664234,0.00150191195,0.00213713963,0.00276967625
3.5,1.72801457e-05,0.000355971692,0.000891067714,0.00150253947,0.00213808736,0.00277112849
3.55,1.73196186e-05,0.00035619879,0.000891465405,0.00150315312,0.00213900829,0.0027725283
3.6,1.73595668e-05,0.000356426315,0.000891857953,0.00150375369,0.00213990398,0.00277387935
3.65,1.74000685e-05,0.000356654905,0.000892246059,0.00150434199,0.00214077587,0.00277518497
3.7,1.74412077e-05,0.000356885265,0.000892630489,0.00150491879,0.00214162529,0.00277644816
3.75,1.74830749e-05,0.000357118171,0.000893012089,0.00150548492,0.0021424535,0.00277767166
3.8,1.75257663e-05,0.000357354473,0.000893391793,0.00150604122,0.00214326167,0.00277885793
3.85,1.75693852e-05,0.000357595105,0.000893770638,0.00150658858,0.00214405093,0.00278000923
3.9,1.76140411e-05,0.000357841086,0.000894149778,0.00150712794,0.00214482237,0.00278112763
3.95,1.76598507e-05,0.000358093529,0.000894530494,0.00150766034,0.00214557704,0.00278221504
4.0,1.77069375e-05,0.000358353641,0.000894914208,0.0015081869,0.00214631602,0.00278327323
4.05,1.77554321e-05,0.000358622731,0.0008953025,0.00150870887,0.00214704037,0.00278430382
4.1,1.78054724e-05,0.000358902215,0.000895697116,0.00150922762,0.00214775121,0.00278530837
4.15,1.78572036e-05,0.000359193617,0.000896099984,0.00150974468,0.00214844968,0.00278628833
4.2,1.79107783e-05,0.000359498576,0.000896513227,0.00151026177,0.00214913702,0.00278724509
4.25,1.79663566e-05,0.000359818846,0.000896939177,0.0015107808,0.00214981455,0.00278818
4.3,1.80241061e-05,0.000360156304,0.000897380384,0.00151130388,0.00215048374,0.00278909438
4.35,1.80842019e-05,0.00036051295,0.000897839631,0.00151183339,0.00215114617,0.00278998958
4.4,1.81468268e-05,0.000360890909,0.000898319947,0.00151237197,0.00215180363,0.00279086692
4.45,1.8212171e-05,0.000361292436,0.000898824613,0.00151292253,0.00215245807,0.00279172783
4.5,1.82804325e-05,0.000361719916,0.000899357179,0.0015134883,0.00215311171,0.00279257375
4.55,1.83518166e-05,0.000362175867,0.000899921468,0.00151407285,0.00215376702,0.00279340628
4.6,1.84265362e-05,0.000362662939,0.00090052159,0.00151468008,0.00215442674,0.00279422711
4.65,1.85048117e-05,0.000363183919,0.000901161949,0.00151531429,0.00215509396,0.00279503811
4.7,1.85868708e-05,0.000363741728,0.000901847249,0.00151598015,0.00215577211,0.00279584136
4.75,1.86729487e-05,0.000364339423,0.000902582504,0.00151668275,0.00215646501,0.00279663913
4.8,1.87632875e-05,0.000364980198,0.000903373043,0.00151742761,0.00215717689,0.00279743401
4.85,1.88581368e-05,0.000365667381,0.000904224514,0.00151822072,0.00215791245,0.00279822886
4.9,1.89577528e-05,0.000366404436,0.000905142891,0.00151906851,0.00215867683,0.00279902689
4.95,1.90623989e-05,0.000367194962,0.000906134478,0.00151997789,0.00215947572,0.0027998317
5.0,1.91723453e-05,0.000368042689,0.000907205909,0.00152095629,0.00216031533,0.00280064732
5.05,1.92878686e-05,0.000368951481,0.000908364152,0.00152201163,0.00216120245,0.00280147822
5.1,1.94092521e-05,0.000369925332,0.000909616512,0.00152315236,0.00216214443,0.00280232941
5.15,1.95367854e-05,0.000370968362,0.000910970627,0.00152438745,0.0021631493,0.00280320642
5.2,1.96707642e-05,0.00037208482,0.000912434474,0.00152572642,0.00216422568,0.00280411538
5.25,1.98114903e-05,0.000373279076,0.000914016362,0.00152717934,0.0021653829,0.00280506304
5.3,1.99592714e-05,0.000374555623,0.000915724933,0.00152875681,0.00216663095,0.00280605683
5.35,2.01144208e-05,0.000375919073,0.00091756916,0.00153047002,0.00216798056,0.00280710486
5.4,2.02772574e-05,0.000377374151,0.000919558344,0.00153233071,0.00216944317,0.00280821602
5.45,2.04481055e-05,0.000378925698,0.000921702106,0.00153435116,0.00217103096,0.00280939994
5.5,2.06272943e-05,0.000380578661,0.00092401039,0.00153654426,0.0021727569,0.00281066708
5.55,2.08151582e-05,0.000382338095,0.00092649345,0.00153892344,0.00217463469,0.00281202875
5.6,2.10120363e-05,0.000384209158,0.00092916185,0.00154150267,0.00217667884,0.0028134971
5.65,2.12182723e-05,0.000386197104,0.000932026456,0.00154429652,0.00217890465,0.00281508523
5.7,2.14342143e-05,0.000388307284,0.000935098429,0.00154732008,0.00218132821,0.00281680711
5.75,2.16602147e-05,0.000390545142,0.000938389217,0.00155058902,0.00218396639,0.00281867771
5.8,2.18966298e-05,0.000392916206,0.000941910552,0.00155411952,0.0021868369,0.00282071294
5.85,2.21438197e-05,0.000395426092,0.000945674434,0.00155792833,0.00218995824,0.00282292971
5.9,2.24021482e-05,0.00039808049,0.000949693131,0.00156203269,0.00219334969,0.00282534593
5.95,2.26719827e-05,0.000400885172,0.000953979167,0.00156645037,0.00219703135,0.00282798051
6.0,2.29536936e-05,0.000403845978,0.00095854531,0.00157119966,0.00220102412,0.00283085342
6.05,2.32476546e-05,0.000406968816,0.00096340457,0.00157629933,0.00220534968,0.00283398565
6.1,2.3554242e-05,0.000410259659,0.00096857018,0.00158176863,0.00221003047,0.00283739921
6.15,2.38738351e-05,0.000413724538,0.000974055598,0.00158762729,0.00221508972,0.00284111718
6.2,2.42068155e-05,0.00041736954,0.000979874488,0.00159389548,0.00222055142,0.00284516368
6.25,2.45535672e-05,0.000421200805,0.000986040712,0.00160059383,0.00222644028,0.00284956386
6.3,2.49144764e-05,0.000425224519,0.000992568324,0.00160774339,0.00223278178,0.00285434391
6.35,2.52899313e-05,0.000429446912,0.000999471558,0.00161536562,0.00223960207,0.00285953105
6.4,2.56803217e-05,0.000433874253,0.00100676481,0.00162348238,0.00224692803,0.00286515352
6.45,2.60860391e-05,0.000438512848,0.00101446265,0.00163211589,0.0022547872,0.00287124057
6.5,2.65074768e-05,0.000443369034,0.00102257978,0.00164128878,0.00226320782,0.00287782246
6.55,2.69450288e-05,0.000448449176,0.00103113105,0.00165102399,0.00227221872,0.00288493041
6.6,2.73990907e-05,0.000453759663,0.00104013145,0.0016613448,0.00228184939,0.00289259661
