vds,vb1,vb2,vb3,vb4,vb5,vb6
0.0,-0.0,-0.0,-0.0,-0.0,-0.0,-0.0
0.05,7.63961563e-07,4.45793273e-06,7.63761007e-06,1.01919042e-05,1.21157352e-05,1.3471186e-05
0.1,1.30117835e-06,8.66835314e-06,1.50416631e-05,2.01696556e-05,2.40390907e-05,2.67721762e-05
0.15,1.62295994e-06,1.26319739e-05,2.22128675e-05,2.99338923e-05,3.57706072e-05,3.99034124e-05
0.2,1.76854892e-06,1.63495101e-05,2.9151929e-05,3.94852496e-05,4.73108236e-05,5.28653345e-05
0.25,1.8174683e-06,1.98216818e-05,3.58595502e-05,4.88243602e-05,5.86602764e-05,6.56583809e-05
0.3,1.83402735e-06,2.30492171e-05,4.23364311e-05,5.79518542e-05,6.98195002e-05,7.82829887e-05
0.35,1.84138762e-06,2.60328583e-05,4.85832687e-05,6.68683593e-05,8.07890277e-05,9.07395931e-05
0.4,1.84570465e-06,2.87733711e-05,5.46007571e-05,7.55745002e-05,9.15693894e-05,0.000103028628
0.45,1.84879019e-06,3.12715602e-05,6.03895879e-05,8.40708993e-05,0.000102161114,0.000115150526
0.5,1.8512893e-06,3.35282964e-05,6.59504496e-05,9.23581762e-05,0.000112564727,0.000127105718
0.55,1.85347273e-06,3.55445668e-05,7.12840284e-05,0.000100436948,0.000122780753,0.000138894632
0.6,1.85546967e-06,3.73215671e-05,7.63910078e-05,0.000108307829,0.000132809716,0.000150517698
0.65,1.8573482e-06,3.88608833e-05,8.12720689e-05,0.000115971431,0.000142652134,0.00016197534
0.7,1.8591471e-06,4.01648593e-05,8.59278905e-05,0.000123428362,0.000152308526,0.000173267985
0.75,1.86088994e-06,4.12373552e-05,9.03591497e-05,0.00013067923,0.000161779409,0.000184396055
0.8,1.86259176e-06,4.20852971e-05,9.45665222e-05,0.000137724638,0.000171065296,0.000195359971
0.85,1.86426263e-06,4.27215785e-05,9.85506831e-05,0.000144565186,0.0001801667,0.000206160155
0.9,1.8659095e-06,4.31692404e-05,0.000102312308,0.000151201472,0.00018908413,0.000216797025
0.95,1.86753732e-06,4.34639816e-05,0.000105852075,0.000157634092,0.000197818096,0.000227270999
1.0,1.86914973e-06,4.36493504e-05,0.000109170666,0.000163863638,0.000206369101,0.000237582491
1.05,1.87074948e-06,4.37653513e-05,0.000112268776,0.000169890698,0.000214737651,0.000247731917
1.1,1.87233864e-06,4.38405428e-05,0.000115147113,0.00017571586,0.000222924247,0.000257719689
1.15,1.87391885e-06,4.38921835e-05,0.000117806417,0.000181339704,0.000230929388,0.000267546218
1.2,1.8754914e-06,4.39299494e-05,0.000120247478,0.000186762812,0.000238753572,0.000277211915
1.25,1.87705734e-06,4.39592099e-05,0.000122471171,0.000191985758,0.000246397294,0.000286717187
1.3,1.8786175e-06,4.39830167e-05,0.000124478522,0.000197009116,0.000253861047,0.000296062442
1.35,1.88017259e-06,4.40031715e-05,0.000126270816,0.000201833453,0.000261145321,0.000305248085
1.4,1.88172319e-06,4.40207826e-05,0.000127849803,0.000206459334,0.000268250606,0.000314274519
1.45,1.88326977e-06,4.40365596e-05,0.000129218061,0.000210887319,0.000275177387,0.000323142147
1.5,1.88481277e-06,4.40509735e-05,0.000130379645,0.000215117964,0.000281926147,0.000331851369
1.55,1.88635252e-06,4.40643475e-05,0.000131341175,0.00021915182,0.000288497368,0.000340402585
1.6,1.88788934e-06,4.407691e-05,0.000132113441,0.000222989433,0.000294891529,0.000348796192
1.65,1.88942348e-06,4.40888265e-05,0.000132713197,0.000226631344,0.000301109104,0.000357032586
1.7,1.89095518e-06,4.41002196e-05,0.000133164012,0.000230078091,0.000307150567,0.000365112162
1.75,1.89248465e-06,4.41111822e-05,0.000133494609,0.000233330208,0.000313016388,0.000373035313
1.8,1.89401205e-06,4.4121786e-05,0.000133734613,0.000236388226,0.000318707034,0.00038080243
1.85,1.89553755e-06,4.4132087e-05,0.000133910019,0.000239252678,0.000324222967,0.000388413902
1.9,1.89706129e-06,4.41421297e-05,0.000134040845,0.000241924109,0.000329564649,0.000395870117
1.95,1.8985834e-06,4.41519501e-05,0.000134141217,0.000244403082,0.000334732534,0.000403171462
2.0,1.900104e-06,4.41615774e-05,0.000134220639,0.000246690203,0.000339727075,0.00041031832
2.05,1.9016232e-06,4.41710357e-05,0.000134285404,0.000248786161,0.000344548719,0.000417311075
2.1,1.90314113e-06,4.4180345e-05,0.000134339687,0.000250691795,0.000349197907,0.000424150107
2.15,1.90465787e-06,4.41895222e-05,0.0001343863,0.000252408213,0.000353675077,0.000430835794
2.2,1.90617356e-06,4.41985814e-05,0.00013442717,0.000253937005,0.000357980658,0.000437368514
2.25,1.90768832e-06,4.42075349e-05,0.000134463648,0.000255280589,0.000362115073,0.000443748642
2.3,1.90920228e-06,4.4216393e-05,0.000134496699,0.000256442777,0.000366078738,0.000449976548
2.35,1.91071562e-06,4.42251647e-05,0.00013452703,0.000257429603,0.00036987206,0.000456052605
2.4,1.91222853e-06,4.42338579e-05,0.000134555166,0.00025825035,0.000373495434,0.000461977179
2.45,1.91374126e-06,4.42424794e-05,0.000134581506,0.000258918466,0.000376949247,0.000467750636
2.5,1.91525408e-06,4.42510352e-05,0.000134606356,0.000259451759,0.000380233872,0.000473373339
2.55,1.91676736e-06,4.42595307e-05,0.000134629957,0.000259871305,0.000383349668,0.000478845645
2.6,1.91828153e-06,4.42679706e-05,0.000134652499,0.000260199186,0.00038629698,0.000484167912
2.65,1.91979712e-06,4.42763592e-05,0.000134674135,0.000260455993,0.00038907614,0.000489340493
2.7,1.92131477e-06,4.42847004e-05,0.000134694988,0.000260659139,0.000391687467,0.000494363737
2.75,1.92283525e-06,4.42929977e-05,0.000134715161,0.000260822315,0.000394131273,0.000499237987
2.8,1.92435949e-06,4.43012545e-05,0.000134734737,0.00026095579,0.000396407874,0.000503963585
2.85,1.92588857e-06,4.43094739e-05,0.000134753787,0.000261067069,0.000398517612,0.000508540865
2.9,1.9274238e-06,4.43176593e-05,0.000134772371,0.00026116158,0.000400460899,0.000512970156
2.95,1.92896668e-06,4.43258138e-05,0.000134790538,0.000261243254,0.000402238284,0.000517251782
3.0,1.93051897e-06,4.4333941e-05,0.000134808332,0.000261314954,0.000403850587,0.000521386058
3.05,1.93208271e-06,4.43420448e-05,0.00013482579,0.000261378793,0.000405299105,0.00052537329
3.1,1.93366022e-06,4.43501294e-05,0.000134842943,0.000261436347,0.000406585948,0.000529213776
3.15,1.93525417e-06,4.43582001e-05,0.000134859821,0.000261488806,0.000407714527,0.000532907803
3.2,1.93686756e-06,4.4366263e-05,0.000134876447,0.000261537086,0.000408690187,0.000536455645
3.25,1.93850381e-06,4.43743255e-05,0.000134892842,0.000261581897,0.000409520887,0.00053985756
3.3,1.94016672e-06,4.43823964e-05,0.000134909026,0.000261623797,0.000410217661,0.000543113792
3.35,1.94186055e-06,4.43904865e-05,0.000134925015,0.000261663233,0.000410794544,0.000546224566
3.4,1.94359003e-06,4.43986089e-05,0.000134940825,0.000261700561,0.000411267752,0.000549190082
3.45,1.94536038e-06,4.44067791e-05,0.00013495647,0.000261736074,0.000411654268,0.000552010519
3.5,1.94717735e-06,4.4415016e-05,0.000134971962,0.00026177001,0.000411970338,0.000554686028
3.55,1.94904725e-06,4.44233417e-05,0.000134987312,0.000261802569,0.000412230349,0.00055721673
3.6,1.95097696e-06,4.44317825e-05,0.000135002532,0.000261833915,0.000412446306,0.00055960272
3.65,1.95297396e-06,4.44403695e-05,0.000135017633,0.000261864189,0.000412627816,0.000561844066
3.7,1.95504635e-06,4.44491385e-05,0.000135032626,0.000261893507,0.000412782359,0.000563940822
3.75,1.95720288e-06,4.44581314e-05,0.000135047521,0.000261921972,0.000412915684,0.000565893049
3.8,1.95945298e-06,4.44673962e-05,0.000135062333,0.000261949671,0.000413032177,0.000567700858
3.85,1.96180675e-06,4.44769878e-05,0.000135077073,0.000261976677,0.000413135194,0.000569364484
3.9,1.964275e-06,4.44869688e-05,0.00013509176,0.000262003057,0.000413227308,0.000570884408
3.95,1.96686924e-06,4.44974098e-05,0.00013510641,0.000262028866,0.000413310512,0.000572261563
4.0,1.96960174e-06,4.45083904e-05,0.000135121046,0.000262054156,0.000413386358,0.000573497623
4.05,1.9724855e-06,4.45199995e-05,0.000135135696,0.00026207897,0.00041345607,0.000574595403
4.1,1.97553426e-06,4.4532336e-05,0.000135150392,0.000262103346,0.000413520621,0.000575559336
4.15,1.97876256e-06,4.45455098e-05,0.000135165171,0.000262127321,0.000413580791,0.000576395916
4.2,1.98218566e-06,4.45596418e-05,0.000135180081,0.000262150925,0.000413637212,0.00057711395
4.25,1.98581964e-06,4.45748647e-05,0.000135195178,0.000262174187,0.000413690401,0.000577724438
4.3,1.98968134e-06,4.4591324e-05,0.000135210527,0.000262197133,0.000413740783,0.000578239996
4.35,1.99378836e-06,4.46091777e-05,0.000135226207,0.000262219786,0.000413788713,0.000578673943
4.4,1.99815911e-06,4.46285977e-05,0.000135242309,0.000262242171,0.000413834487,0.000579039316
4.45,2.00281277e-06,4.46497695e-05,0.00013525894,0.00026226431,0.000413878354,0.000579348079
4.5,2.00776927e-06,4.46728932e-05,0.000135276224,0.000262286225,0.000413920526,0.000579610653
4.55,2.01304934e-06,4.46981838e-05,0.000135294304,0.000262307941,0.000413961185,0.000579835778
4.6,2.01867446e-06,4.47258712e-05,0.000135313343,0.000262329483,0.000414000487,0.000580030588
4.65,2.02466687e-06,4.47562011e-05,0.000135333527,0.00026235088,0.000414038564,0.00058020081
4.7,2.03104955e-06,4.47894349e-05,0.000135355066,0.000262372165,0.000414075535,0.000580351
4.75,2.03784621e-06,4.48258501e-05,0.000135378196,0.000262393377,0.000414111501,0.000580484771
4.8,2.04508129e-06,4.48657404e-05,0.000135403184,0.000262414561,0.000414146551,0.000580604986
4.85,2.05277996e-06,4.49094161e-05,0.000135430323,0.000262435773,0.000414180765,0.000580713925
4.9,2.06096805e-06,4.49572042e-05,0.00013545994,0.000262457077,0.000414214211,0.00058081341
4.95,2.06967211e-06,4.50094482e-05,0.000135492398,0.000262478554,0.000414246952,0.000580904911
5.0,2.07891934e-06,4.50665084e-05,0.000135528091,0.000262500296,0.000414279045,0.000580989614
5.05,2.08873758e-06,4.51287622e-05,0.000135567454,0.000262522417,0.000414310537,0.000581068491
5.1,2.09915532e-06,4.51966032e-05,0.000135610959,0.00026254505,0.000414341477,0.000581142339
5.15,2.11020166e-06,4.52704423e-05,0.00013565912,0.000262568352,0.000414371905,0.000581211819
5.2,2.12190631e-06,4.53507065e-05,0.000135712492,0.000262592507,0.000414401861,0.000581277481
5.25,2.13429952e-06,4.54378396e-05,0.000135771673,0.000262617729,0.000414431383,0.000581339787
5.3,2.14741214e-06,4.55323017e-05,0.000135837306,0.000262644265,0.000414460508,0.000581399128
5.35,2.16127553e-06,4.56345687e-05,0.000135910081,0.000262672401,0.000414489274,0.000581455834
5.4,2.17592157e-06,4.57451328e-05,0.000135990732,0.000262702462,0.000414517722,0.000581510191
5.45,2.19138266e-06,4.58645016e-05,0.000136080042,0.000262734818,0.000414545895,0.000581562441
5.5,2.20769165e-06,4.5993198e-05,0.000136178845,0.000262769887,0.000414573841,0.000581612795
5.55,2.22488185e-06,4.61317602e-05,0.000136288019,0.000262808137,0.000414601617,0.000581661436
5.6,2.242987e-06,4.62807407e-05,0.000136408495,0.000262850095,0.000414629288,0.000581708524
5.65,2.26204125e-06,4.64407067e-05,0.000136541254,0.000262896345,0.000414656934,0.000581754198
5.7,2.28207916e-06,4.66122393e-05,0.000136687327,0.000262947532,0.000414684646,0.000581798582
5.75,2.30313562e-06,4.67959329e-05,0.000136847795,0.00026300437,0.000414712537,0.000581841786
5.8,2.32524589e-06,4.69923955e-05,0.00013702379,0.000263067642,0.000414740741,0.000581883904
5.85,2.34844555e-06,4.72022474e-05,0.000137216495,0.000263138202,0.000414769416,0.000581925025
5.9,2.37277049e-06,4.74261214e-05,0.000137427142,0.000263216982,0.000414798752,0.000581965225
5.95,2.39825687e-06,4.76646623e-05,0.000137657015,0.000263304993,0.000414828974,0.000582004576
6.0,2.42494111e-06,4.79185258e-05,0.000137907446,0.000263403326,0.000414860344,0.000582043141
6.05,2.45285987e-06,4.81883789e-05,0.000138179817,0.000263513157,0.000414893169,0.000582080981
6.1,2.48205004e-06,4.84748989e-05,0.000138475559,0.00026363575,0.000414927807,0.000582118151
6.15,2.51254869e-06,4.87787728e-05,0.00013879615,0.000263772456,0.000414964669,0.000582154706
6.2,2.54439309e-06,4.91006974e-05,0.000139143116,0.000263924718,0.000415004228,0.000582190699
6.25,2.57762064e-06,4.94413781e-05,0.000139518028,0.000264094071,0.00041504702,0.000582226186
6.3,2.61226891e-06,4.98015288e-05,0.000139922504,0.000264282145,0.000415093657,0.000582261226
6.35,2.64837557e-06,5.01818715e-05,0.000140358206,0.000264490663,0.000415144827,0.000582295883
6.4,2.68597838e-06,5.05831352e-05,0.000140826837,0.000264721447,0.000415201301,0.000582330229
6.45,2.72511522e-06,5.10060563e-05,0.000141330145,0.000264976413,0.000415263939,0.000582364348
6.5,2.765824e-06,5.14513773e-05,0.000141869917,0.000265257578,0.000415333699,0.000582398337
6.55,2.8081427e-06,5.19198467e-05,0.000142447982,0.000265567053,0.000415411636,0.000582432314
6.6,2.8521093e-06,5.24122184e-05,0.000143066203,0.000265907051,0.000415498914,0.000582466417
