vds,vb1,vb2,vb3,vb4,vb5,vb6
0.0,-0.0,-0.0,-0.0,-0.0,-0.0,-0.0
0.05,1.60824718e-07,8.79299492e-07,1.49895707e-06,1.99813551e-06,2.37549744e-06,2.64274583e-06
0.1,2.77241443e-07,1.71066083e-06,2.95264206e-06,3.95471673e-06,4.71362086e-06,5.25238398e-06
0.15,3.50918292e-07,2.49422025e-06,4.36119008e-06,5.86986525e-06,7.01447337e-06,7.82899876e-06
0.2,3.87640112e-07,3.23011441e-06,5.72473566e-06,7.74370217e-06,9.27815771e-06,1.03726741e-05
0.25,4.01154418e-07,3.9184808e-06,7.04341283e-06,9.57634808e-06,1.15047762e-05,1.28834939e-05
0.3,4.05707388e-07,4.55945833e-06,8.31735506e-06,1.13679231e-05,1.36944309e-05,1.53615413e-05
0.35,4.0760845e-07,5.15318833e-06,9.54669531e-06,1.31185469e-05,1.58472233e-05,1.78068997e-05
0.4,4.08655606e-07,5.69981609e-06,1.0731566e-05,1.48283386e-05,1.79632547e-05,2.02196518e-05
0.45,4.09369648e-07,6.19949353e-06,1.1872099e-05,1.64974168e-05,2.00426258e-05,2.25998802e-05
0.5,4.09929912e-07,6.65238365e-06,1.29684258e-05,1.81258997e-05,2.2085437e-05,2.49476672e-05
0.55,4.10409395e-07,7.0586686e-06,1.40206772e-05,1.97139051e-05,2.40917885e-05,2.72630948e-05
0.6,4.10842063e-07,7.41856453e-06,1.50289836e-05,2.12615499e-05,2.60617799e-05,2.95462447e-05
0.65,4.11245456e-07,7.7323501e-06,1.59934752e-05,2.2768951e-05,2.79955105e-05,3.17971983e-05
0.7,4.11629408e-07,8.00042337e-06,1.69142813e-05,2.42362245e-05,2.98930792e-05,3.40160368e-05
0.75,4.11999808e-07,8.22341798e-06,1.77915313e-05,2.56634861e-05,3.17545844e-05,3.62028411e-05
0.8,4.1236038e-07,8.40244103e-06,1.86253541e-05,2.70508509e-05,3.35801244e-05,3.83576917e-05
0.85,4.12713584e-07,8.53953337e-06,1.94158786e-05,2.83984337e-05,3.5369797e-05,4.04806689e-05
0.9,4.13061111e-07,8.63840761e-06,2.01632335e-05,2.97063484e-05,3.71236993e-05,4.25718528e-05
0.95,4.13404157e-07,8.70513397e-06,2.08675482e-05,3.09747088e-05,3.88419286e-05,4.46313231e-05
1.0,4.13743595e-07,8.74777804e-06,2.15289527e-05,3.22036279e-05,4.05245813e-05,4.66591593e-05
1.05,4.14080076e-07,8.77450062e-06,2.21475787e-05,3.33932181e-05,4.21717537e-05,4.86554405e-05
1.1,4.14414097e-07,8.79162487e-06,2.27235606e-05,3.45435914e-05,4.37835415e-05,5.06202458e-05
1.15,4.14746044e-07,8.80317577e-06,2.32570379e-05,3.5654859e-05,4.53600402e-05,5.25536536e-05
1.2,4.1507622e-07,8.81146233e-06,2.37481579e-05,3.67271318e-05,4.69013449e-05,5.44557424e-05
1.25,4.1540487e-07,8.81777055e-06,2.41970817e-05,3.77605198e-05,4.840755e-05,5.63265901e-05
1.3,4.15732192e-07,8.82282671e-06,2.46039944e-05,3.87551325e-05,4.98787499e-05,5.81662747e-05
1.35,4.16058349e-07,8.82705503e-06,2.49691216e-05,3.97110784e-05,5.13150382e-05,5.99748736e-05
1.4,4.16383475e-07,8.83071343e-06,2.52927612e-05,4.06284657e-05,5.27165083e-05,6.1752464e-05
1.45,4.16707684e-07,8.83396512e-06,2.55753388e-05,4.15074015e-05,5.40832532e-05,6.34991228e-05
1.5,4.17031071e-07,8.83691729e-06,2.58175076e-05,4.23479923e-05,5.54153652e-05,6.52149267e-05
1.55,4.17353719e-07,8.83964279e-06,2.60203195e-05,4.31503436e-05,5.67129364e-05,6.6899952e-05
1.6,4.17675698e-07,8.84219261e-06,2.61854928e-05,4.39145602e-05,5.79760583e-05,6.85542749e-05
1.65,4.17997068e-07,8.84460342e-06,2.63157557e-05,4.46407459e-05,5.92048219e-05,7.01779711e-05
1.7,4.18317883e-07,8.84690223e-06,2.64151173e-05,4.53290038e-05,6.03993177e-05,7.1771116e-05
1.75,4.18638188e-07,8.84910936e-06,2.64887752e-05,4.59794363e-05,6.15596357e-05,7.33337848e-05
1.8,4.18958025e-07,8.85124037e-06,2.6542481e-05,4.65921453e-05,6.26858653e-05,7.48660525e-05
1.85,4.19277431e-07,8.8533074e-06,2.65816279e-05,4.71672331e-05,6.37780951e-05,7.63679936e-05
1.9,4.19596437e-07,8.85532004e-06,2.66105928e-05,4.7704803e-05,6.48364134e-05,7.78396823e-05
1.95,4.19915074e-07,8.85728599e-06,2.66325725e-05,4.82049615e-05,6.58609075e-05,7.92811926e-05
2.0,4.20233368e-07,8.85921151e-06,2.66497591e-05,4.86678213e-05,6.68516641e-05,8.06925981e-05
2.05,4.20551346e-07,8.86110172e-06,2.66636132e-05,4.90935075e-05,6.7808769e-05,8.2073972e-05
2.1,4.20869032e-07,8.86296087e-06,2.66751039e-05,4.94821674e-05,6.87323073e-05,8.34253873e-05
2.15,4.2118645e-07,8.86479253e-06,2.668488e-05,4.98339888e-05,6.96223627e-05,8.47469165e-05
2.2,4.21503625e-07,8.86659971e-06,2.66933834e-05,5.01492309e-05,7.04790183e-05,8.60386319e-05
2.25,4.21820586e-07,8.86838496e-06,2.67009213e-05,5.04282773e-05,7.13023554e-05,8.73006052e-05
2.3,4.22137362e-07,8.87015046e-06,2.67077118e-05,5.06717233e-05,7.20924545e-05,8.85329079e-05
2.35,4.22453988e-07,8.87189812e-06,2.67139129e-05,5.08805089e-05,7.28493941e-05,8.97356109e-05
2.4,4.22770506e-07,8.87362956e-06,2.67196414e-05,5.10561008e-05,7.35732512e-05,9.09087849e-05
2.45,4.23086967e-07,8.87534623e-06,2.67249853e-05,5.12006892e-05,7.42641007e-05,9.20524998e-05
2.5,4.23403431e-07,8.87704936e-06,2.67300119e-05,5.1317308e-05,7.49220157e-05,9.31668253e-05
2.55,4.23719973e-07,8.87874009e-06,2.67347735e-05,5.14097563e-05,7.55470664e-05,9.42518304e-05
2.6,4.24036684e-07,8.88041938e-06,2.67393115e-05,5.14822631e-05,7.61393208e-05,9.53075836e-05
2.65,4.24353675e-07,8.88208813e-06,2.67436587e-05,5.15390046e-05,7.66988444e-05,9.63341527e-05
2.7,4.24671081e-07,8.88374713e-06,2.67478417e-05,5.15836846e-05,7.72257e-05,9.73316049e-05
2.75,4.24989065e-07,8.88539712e-06,2.67518825e-05,5.16193192e-05,7.77199489e-05,9.83000066e-05
2.8,4.25307821e-07,8.88703878e-06,2.67557989e-05,5.16482231e-05,7.81816523e-05,9.92394234e-05
2.85,4.25627581e-07,8.88867276e-06,2.6759606e-05,5.16721093e-05,7.8610874e-05,0.00010014992
2.9,4.25948619e-07,8.8902997e-06,2.67633162e-05,5.16922233e-05,7.90076868e-05,0.00010103156
2.95,4.26271256e-07,8.89192024e-06,2.67669402e-05,5.17094671e-05,7.93721824e-05,0.000101884406
3.0,4.26595865e-07,8.89353507e-06,2.67704871e-05,5.17244959e-05,7.970449e-05,0.00010270852
3.05,4.26922879e-07,8.89514493e-06,2.67739646e-05,5.17377906e-05,8.00048069e-05,0.00010350396
3.1,4.27252795e-07,8.89675066e-06,2.67773795e-05,5.17497078e-05,8.02734488e-05,0.000104270785
3.15,4.27586181e-07,8.89835325e-06,2.67807376e-05,5.17605157e-05,8.05109261e-05,0.000105009052
3.2,4.27923682e-07,8.89995384e-06,2.6784044e-05,5.17704188e-05,8.07180504e-05,0.000105718815
3.25,4.28266026e-07,8.90155382e-06,2.67873031e-05,5.17795748e-05,8.08960637e-05,0.000106400124
3.3,4.28614031e-07,8.90315486e-06,2.6790519e-05,5.17881072e-05,8.1046757e-05,0.00010705303
3.35,4.28968611e-07,8.90475899e-06,2.6793695e-05,5.17961138e-05,8.11725227e-05,0.000107677576
3.4,4.29330781e-07,8.90636866e-06,2.67968344e-05,5.1803673e-05,8.12762806e-05,0.000108273806
3.45,4.29701667e-07,8.90798681e-06,2.679994e-05,5.1810848e-05,8.13612657e-05,0.000108841755
3.5,4.30082506e-07,8.90961699e-06,2.68030143e-05,5.18176906e-05,8.14307372e-05,0.000109381458
3.55,4.30474658e-07,8.9112634e-06,2.68060597e-05,5.18242437e-05,8.14877108e-05,0.000109892942
3.6,4.30879607e-07,8.91293104e-06,2.68090785e-05,5.18305427e-05,8.15347898e-05,0.000110376228
3.65,4.3129897e-07,8.91462579e-06,2.68120728e-05,5.18366176e-05,8.15741076e-05,0.000110831335
3.7,4.317345e-07,8.9163545e-06,2.68150447e-05,5.18424935e-05,8.16073517e-05,0.000111258276
3.75,4.32188088e-07,8.91812515e-06,2.68179966e-05,5.1848192e-05,8.16358292e-05,0.000111657064
3.8,4.32661776e-07,8.91994694e-06,2.68209307e-05,5.18537313e-05,8.16605418e-05,0.000112027715
3.85,4.33157753e-07,8.9218304e-06,2.68238496e-05,5.18591273e-05,8.1682255e-05,0.000112370261
3.9,4.33678361e-07,8.92378756e-06,2.68267564e-05,5.18643938e-05,8.1701555e-05,0.000112684767
3.95,4.34226102e-07,8.92583202e-06,2.68296544e-05,5.18695427e-05,8.17188938e-05,0.000112971357
4.0,4.34803636e-07,8.92797912e-06,2.68325479e-05,5.18745845e-05,8.17346223e-05,0.000113230261
4.05,4.35413789e-07,8.93024604e-06,2.68354417e-05,5.18795284e-05,8.17490152e-05,0.000113461881
4.1,4.36059549e-07,8.93265195e-06,2.68383418e-05,5.18843826e-05,8.176229e-05,0.000113666867
4.15,4.36744073e-07,8.93521811e-06,2.68412552e-05,5.18891543e-05,8.17746203e-05,0.000113846215
4.2,4.37470689e-07,8.937968e-06,2.68441905e-05,5.18938499e-05,8.17861459e-05,0.00011400134
4.25,4.38242893e-07,8.94092747e-06,2.6847158e-05,5.18984754e-05,8.17969807e-05,0.000114134105
4.3,4.39064351e-07,8.94412478e-06,2.68501699e-05,5.19030361e-05,8.18072179e-05,0.000114246765
4.35,4.39938904e-07,8.94759079e-06,2.68532407e-05,5.1907537e-05,8.18169348e-05,0.000114341831
4.4,4.40870561e-07,8.95135902e-06,2.68563873e-05,5.19119827e-05,8.18261958e-05,0.000114421885
4.45,4.41863504e-07,8.95546574e-06,2.68596297e-05,5.19163776e-05,8.18350549e-05,0.000114489399
4.5,4.42922084e-07,8.9599501e-06,2.6862991e-05,5.19207263e-05,8.18435577e-05,0.0001145466
4.55,4.44050824e-07,8.96485419e-06,2.68664979e-05,5.19250333e-05,8.18517433e-05,0.000114595401
4.6,4.45254413e-07,8.97022312e-06,2.68701812e-05,5.19293035e-05,8.18596449e-05,0.000114637394
4.65,4.46537706e-07,8.97610508e-06,2.68740757e-05,5.19335422e-05,8.18672913e-05,0.00011467387
4.7,4.47905724e-07,8.98255144e-06,2.68782211e-05,5.19377556e-05,8.18747072e-05,0.000114705863
4.75,4.49363649e-07,8.98961675e-06,2.68826623e-05,5.19419505e-05,8.18819143e-05,0.000114734195
4.8,4.50916824e-07,8.99735883e-06,2.68874493e-05,5.19461354e-05,8.18889316e-05,0.000114759517
4.85,4.52570748e-07,9.0058388e-06,2.68926381e-05,5.19503201e-05,8.18957756e-05,0.000114782347
4.9,4.54331074e-07,9.01512111e-06,2.68982911e-05,5.19545165e-05,8.19024611e-05,0.000114803099
4.95,4.56203606e-07,9.02527352e-06,2.69044769e-05,5.19587388e-05,8.19090011e-05,0.000114822102
5.0,4.58194294e-07,9.03636718e-06,2.69112714e-05,5.19630041e-05,8.19154072e-05,0.000114839625
5.05,4.60309234e-07,9.04847661e-06,2.69187573e-05,5.19673327e-05,8.19216898e-05,0.000114855884
5.1,4.6255466e-07,9.06167968e-06,2.69270255e-05,5.19717488e-05,8.19278585e-05,0.000114871057
5.15,4.64936942e-07,9.07605761e-06,2.69361742e-05,5.19762812e-05,8.19339219e-05,0.000114885291
5.2,4.67462582e-07,9.09169498e-06,2.69463103e-05,5.19809633e-05,8.1939888e-05,0.000114898706
5.25,4.70138211e-07,9.10867965e-06,2.69575488e-05,5.19858345e-05,8.19457645e-05,0.000114911405
5.3,4.72970579e-07,9.12710281e-06,2.69700138e-05,5.19909404e-05,8.19515587e-05,0.000114923473
5.35,4.7596656e-07,9.14705885e-06,2.69838382e-05,5.19963336e-05,8.19572779e-05,0.000114934982
5.4,4.79133138e-07,9.1686454e-06,2.69991641e-05,5.20020742e-05,8.19629298e-05,0.000114945994
5.45,4.8247741e-07,9.19196321e-06,2.70161429e-05,5.20082311e-05,8.19685225e-05,0.000114956562
5.5,4.86006574e-07,9.21711614e-06,2.70349358e-05,5.2014882e-05,8.19740649e-05,0.000114966731
5.55,4.89727932e-07,9.2442111e-06,2.70557135e-05,5.20221145e-05,8.19795673e-05,0.00011497654
5.6,4.93648879e-07,9.27335796e-06,2.70786566e-05,5.20300271e-05,8.19850415e-05,0.000114986024
5.65,4.97776902e-07,9.30466948e-06,2.71039556e-05,5.20387292e-05,8.19905013e-05,0.000114995213
5.7,5.02119573e-07,9.33826127e-06,2.71318111e-05,5.20483425e-05,8.19959634e-05,0.000115004133
5.75,5.06684546e-07,9.37425168e-06,2.71624333e-05,5.20590015e-05,8.20014476e-05,0.000115012807
5.8,5.11479551e-07,9.41276171e-06,2.71960431e-05,5.2070854e-05,8.20069776e-05,0.000115021256
5.85,5.16512389e-07,9.45391497e-06,2.72328709e-05,5.20840619e-05,8.2012582e-05,0.000115029498
5.9,5.21790928e-07,9.49783754e-06,2.72731573e-05,5.2098802e-05,8.20182945e-05,0.000115037548
5.95,5.27323099e-07,9.54465791e-06,2.7317153e-05,5.21152661e-05,8.20241552e-05,0.000115045423
6.0,5.3311689e-07,9.5945069e-06,2.73651185e-05,5.21336623e-05,8.20302115e-05,0.000115053136
6.05,5.39180341e-07,9.64751751e-06,2.74173241e-05,5.21542148e-05,8.20365189e-05,0.000115060698
6.1,5.45521541e-07,9.70382488e-06,2.74740498e-05,5.21771649e-05,8.20431421e-05,0.000115068121
6.15,5.52148623e-07,9.76356618e-06,2.75355852e-05,5.22027714e-05,8.20501558e-05,0.000115075416
6.2,5.59069758e-07,9.82688048e-06,2.76022292e-05,5.22313106e-05,8.20576463e-05,0.000115082594
6.25,5.66293154e-07,9.89390869e-06,2.76742903e-05,5.2263077e-05,8.20657122e-05,0.000115089666
6.3,5.73827047e-07,9.96479342e-06,2.77520857e-05,5.22983839e-05,8.20744655e-05,0.000115096641
6.35,5.816797e-07,1.00396789e-05,2.78359417e-05,5.23375629e-05,8.20840331e-05,0.000115103533
6.4,5.898594e-07,1.0118711e-05,2.79261933e-05,5.23809648e-05,8.20945576e-05,0.000115110354
6.45,5.98374451e-07,1.02020368e-05,2.80231838e-05,5.24289594e-05,8.21061988e-05,0.00011511712
6.5,6.07233168e-07,1.02898048e-05,2.81272648e-05,5.2481936e-05,8.21191344e-05,0.000115123847
6.55,6.16443882e-07,1.03821647e-05,2.82387959e-05,5.25403029e-05,8.21335614e-05,0.000115130556
6.6,6.26014925e-07,1.04792675e-05,2.83581444e-05,5.26044881e-05,8.21496974e-05,0.000115137271
