vds,vb1,vb2,vb3,vb4,vb5,vb6
0.0,-0.0,-0.0,-0.0,-0.0,-0.0,-0.0
0.05,2.85688975e-05,0.000145399238,0.000230356886,0.000294568591,0.000340984759,0.000372514576
0.1,4.61746066e-05,0.000276911557,0.000445303012,0.000573139134,0.000666215381,0.000730089065
0.15,5.51486975e-05,0.000395233955,0.000645595797,0.000836449884,0.000976359465,0.0010732977
0.2,5.96907352e-05,0.000501015669,0.000831941198,0.00108519263,0.0012720464,0.00140268511
0.25,6.27083178e-05,0.000594860658,0.00100499579,0.00132001458,0.00155386894,0.00171876751
0.3,6.51170413e-05,0.000677329867,0.00116536885,0.00154151997,0.0018223844,0.00202203367
0.35,6.71965956e-05,0.000748941549,0.00131362489,0.00175027187,0.00207811592,0.00231294571
0.4,6.90648523e-05,0.000810166817,0.00145028618,0.00194679441,0.00232155375,0.00259193994
0.45,7.07844255e-05,0.000861422702,0.00157583454,0.00213157538,0.00255315695,0.00285942783
0.5,7.23933237e-05,0.0009031034,0.00169071071,0.00230506894,0.00277335534,0.00311579714
0.55,7.39166021e-05,0.000935793493,0.00179530893,0.00246769815,0.00298255159,0.00336141319
0.6,7.53717304e-05,0.000960691368,0.00188996242,0.00261985665,0.00318112348,0.00359662039
0.65,7.67714014e-05,0.000979617671,0.00197491378,0.00276190887,0.00336942604,0.00382174369
0.7,7.81251347e-05,0.0009943714,0.00205026563,0.00289418753,0.00354779337,0.00403709029
0.75,7.9440255e-05,0.00100628413,0.0021159299,0.00301698673,0.00371653989,0.00424295112
0.8,8.07225174e-05,0.00101622696,0.0021716764,0.00313054779,0.00387596065,0.00443960228
0.85,8.19765247e-05,0.00102475692,0.00221747162,0.00323503349,0.00402633027,0.00462730629
0.9,8.3206014e-05,0.00103223743,0.00225402168,0.00333048575,0.00416789963,0.00480631283
0.95,8.44140594e-05,0.00103891352,0.00228286883,0.00341676796,0.00430088923,0.00497685919
1.0,8.5603219e-05,0.00104495615,0.00230584101,0.00349352225,0.00442547727,0.0051391698
1.05,8.67756428e-05,0.00105048848,0.0023245183,0.00356024294,0.00454177961,0.00529345483
1.1,8.79331545e-05,0.00105560171,0.00234007108,0.00361660749,0.00464981787,0.00543990728
1.15,8.90773133e-05,0.00106036506,0.00235331649,0.00366297241,0.00474947393,0.0055786977
1.2,9.0209462e-05,0.0010648322,0.00236481933,0.00370054778,0.00484043939,0.00570996559
1.25,9.13307647e-05,0.00106904551,0.00237497471,0.00373101825,0.00492220095,0.00583380541
1.3,9.24422369e-05,0.00107303901,0.00238406479,0.00375603009,0.00499415431,0.00595024503
1.35,9.35447688e-05,0.00107684039,0.00239229567,0.00377692468,0.00505592761,0.00605921415
1.4,9.46391452e-05,0.00108047247,0.00239982131,0.00379470525,0.00510778328,0.00616050342
1.45,9.5726061e-05,0.00108395429,0.00240675909,0.00381009874,0.00515073772,0.00625372664
1.5,9.6806134e-05,0.00108730188,0.00241320024,0.00382362997,0.00518626685,0.00633832516
1.55,9.7879916e-05,0.00109052885,0.00241921682,0.00383568161,0.00521589067,0.00641368543
1.6,9.89479012e-05,0.00109364687,0.00242486663,0.00384653703,0.00524091848,0.00647941257
1.65,0.000100010534,0.00109666601,0.00243019671,0.00385640976,0.00526237988,0.00653564693
1.7,0.000101068216,0.00109959501,0.00243524572,0.00386546355,0.00528105231,0.00658317115
1.75,0.000102121309,0.00110244152,0.00244004588,0.00387382603,0.00529751565,0.00662320906
1.8,0.000103170143,0.00110521225,0.00244462422,0.00388159824,0.00531220347,0.0066571014
1.85,0.000104215017,0.00110791315,0.00244900368,0.0038888613,0.00532544314,0.00668607061
1.9,0.000105256205,0.00111054949,0.00245320388,0.00389568116,0.00533748514,0.00671112631
1.95,0.000106293956,0.00111312596,0.00245724167,0.00390211211,0.00534852378,0.00673306206
2.0,0.0001073285,0.00111564679,0.0024611317,0.00390819924,0.00535871198,0.00675248886
2.05,0.000108360049,0.00111811576,0.00246488674,0.00391398043,0.00536817171,0.00676987511
2.1,0.000109388796,0.00112053628,0.00246851796,0.00391948776,0.00537700145,0.0067855815
2.15,0.000110414922,0.00112291145,0.00247203526,0.00392474859,0.00538528169,0.00679988828
2.2,0.000111438595,0.00112524407,0.00247544737,0.00392978646,0.00539307891,0.00681301557
2.25,0.000112459971,0.0011275367,0.00247876208,0.00393462176,0.00540044856,0.00682513834
2.3,0.000113479199,0.00112979169,0.00248198636,0.00393927223,0.00540743733,0.00683639725
2.35,0.000114496417,0.00113201116,0.00248512646,0.00394375341,0.00541408482,0.00684690668
2.4,0.000115511758,0.0011341971,0.00248818799,0.00394807901,0.00542042491,0.00685676061
2.45,0.000116525353,0.00113635132,0.00249117606,0.00395226115,0.0054264868,0.00686603701
2.5,0.000117537325,0.0011384755,0.00249409527,0.00395631058,0.00543229578,0.00687480119
2.55,0.000118547799,0.00114057121,0.00249694983,0.00396023694,0.0054378739,0.00688310831
2.6,0.0001195569,0.0011426399,0.00249974355,0.00396404885,0.00544324052,0.00689100531
2.65,0.000120564754,0.00114468294,0.00250247996,0.00396775405,0.00544841268,0.00689853246
2.7,0.000121571491,0.00114670163,0.00250516228,0.00397135956,0.0054534055,0.00690572449
2.75,0.000122577247,0.00114869719,0.00250779348,0.00397487172,0.00545823239,0.00691261159
2.8,0.000123582167,0.00115067081,0.00251037631,0.0039782963,0.00546290536,0.00691922011
2.85,0.000124586407,0.00115262363,0.00251291334,0.00398163855,0.00546743518,0.00692557321
2.9,0.000125590133,0.00115455677,0.00251540697,0.00398490328,0.00547183153,0.00693169132
2.95,0.000126593528,0.00115647134,0.00251785946,0.00398809492,0.00547610316,0.00693759255
3.0,0.000127596792,0.00115836846,0.00252027294,0.00399121754,0.00548025799,0.00694329305
3.05,0.000128600146,0.00116024927,0.00252264947,0.00399427492,0.00548430325,0.00694880724
3.1,0.000129603834,0.00116211492,0.00252499106,0.00399727055,0.0054882455,0.00695414807
3.15,0.000130608125,0.00116396666,0.00252729964,0.00400020774,0.00549209077,0.00695932719
3.2,0.000131613317,0.00116580575,0.00252957716,0.00400308957,0.00549584459,0.00696435517
3.25,0.000132619739,0.00116763359,0.00253182557,0.00400591901,0.00549951206,0.00696924155
3.3,0.000133627757,0.00116945164,0.00253404687,0.00400869889,0.00550309792,0.00697399505
3.35,0.000134637773,0.00117126149,0.00253624313,0.00401143198,0.00550660658,0.00697862359
3.4,0.00013565023,0.00117306489,0.00253841653,0.00401412099,0.00551004217,0.00698313446
3.45,0.000136665614,0.00117486371,0.00254056939,0.00401676865,0.0055134086,0.00698753435
3.5,0.000137684459,0.00117666004,0.00254270418,0.00401937772,0.00551670962,0.00699182943
3.55,0.000138707349,0.00117845613,0.00254482361,0.00402195107,0.00551994882,0.00699602543
3.6,0.000139734922,0.00118025446,0.0025469306,0.00402449167,0.00552312973,0.0070001277
3.65,0.000140767869,0.00118205774,0.00254902837,0.00402700268,0.00552625586,0.00700414126
3.7,0.000141806944,0.00118386893,0.00255112046,0.0040294875,0.00552933072,0.00700807085
3.75,0.000142852959,0.00118569128,0.00255321075,0.00403194981,0.0055323579,0.00701192104
3.8,0.000143906793,0.00118752831,0.00255530353,0.00403439361,0.00553534116,0.00701569622
3.85,0.000144969394,0.00118938385,0.00255740352,0.0040368233,0.00553828443,0.00701940071
3.9,0.000146041776,0.00119126207,0.00255951593,0.00403924374,0.00554119191,0.00702303879
3.95,0.000147125029,0.00119316748,0.00256164647,0.0040416603,0.00554406814,0.00702661481
4.0,0.000148220317,0.00119510493,0.00256380141,0.00404407889,0.00554691808,0.0070301332
4.05,0.000149328882,0.00119707967,0.0025659876,0.00404650609,0.00554974714,0.0070335986
4.1,0.000150452046,0.00119909732,0.00256821254,0.00404894915,0.00555256129,0.00703701591
4.15,0.000151591212,0.00120116392,0.00257048439,0.00405141607,0.00555536717,0.00704039038
4.2,0.000152747869,0.00120328592,0.002572812,0.00405391569,0.0055581721,0.00704372769
4.25,0.000153923588,0.00120547019,0.00257520497,0.00405645769,0.00556098421,0.00704703404
4.3,0.000155120032,0.00120772404,0.00257767365,0.00405905272,0.00556381252,0.00705031626
4.35,0.00015633895,0.00121005524,0.00258022921,0.00406171241,0.005566667,0.00705358188
4.4,0.000157582183,0.001212472,0.00258288362,0.00406444943,0.00556955868,0.00705683925
4.45,0.000158851664,0.001214983,0.00258564973,0.00406727755,0.00557249973,0.00706009764
4.5,0.000160149418,0.00121759741,0.00258854124,0.00407021173,0.00557550353,0.00706336735
4.55,0.000161477564,0.00122032484,0.00259157276,0.0040732681,0.00557858475,0.00706665979
4.6,0.00016283832,0.00122317541,0.00259475982,0.00407646407,0.00558175945,0.00706998761
4.65,0.000164233994,0.0012261597,0.00259811888,0.00407981832,0.00558504513,0.0070733648
4.7,0.000165666994,0.00122928881,0.00260166736,0.00408335088,0.00558846082,0.00707680681
4.75,0.000167139826,0.00123257427,0.00260542363,0.00408708317,0.00559202715,0.00708033061
4.8,0.000168655091,0.00123602816,0.00260940704,0.00409103799,0.00559576641,0.00708395484
4.85,0.000170215489,0.00123966299,0.00261363792,0.00409523959,0.00559970263,0.0070876999
4.9,0.000171823818,0.00124349179,0.00261813759,0.00409971369,0.00560386162,0.00709158801
4.95,0.000173482973,0.00124752805,0.00262292835,0.00410448749,0.00560827102,0.00709564338
5.0,0.000175195947,0.00125178574,0.00262803351,0.00410958969,0.00561296037,0.0070998922
5.05,0.000176965833,0.00125627932,0.00263347734,0.00411505054,0.00561796115,0.00710436281
5.1,0.000178795817,0.00126102368,0.00263928514,0.00412090177,0.0056233068,0.00710908573
5.15,0.000180689185,0.0012660342,0.00264548314,0.00412717671,0.0056290328,0.00711409376
5.2,0.000182649319,0.0012713267,0.00265209857,0.00413391018,0.00563517664,0.00711942203
5.25,0.000184679697,0.00127691744,0.00265915964,0.00414113858,0.00564177789,0.00712510808
5.3,0.000186783891,0.00128282313,0.00266669547,0.00414889984,0.0056488782,0.00713119191
5.35,0.000188965568,0.00128906089,0.00267473616,0.00415723342,0.00565652132,0.00713771601
5.4,0.000191228487,0.00129564827,0.00268331271,0.00416618032,0.00566475311,0.00714472544
5.45,0.000193576503,0.00130260323,0.00269245704,0.00417578302,0.00567362154,0.00715226786
5.5,0.00019601356,0.00130994412,0.00270220194,0.00418608553,0.0056831767,0.00716039351
5.55,0.000198543691,0.00131768968,0.00271258111,0.00419713331,0.00569347076,0.00716915532
5.6,0.000201171021,0.00132585901,0.00272362906,0.0042089733,0.00570455802,0.00717860885
5.65,0.000203899763,0.00133447159,0.00273538115,0.00422165385,0.00571649484,0.00718881235
5.7,0.000206734213,0.00134354725,0.00274787354,0.00423522473,0.00572933963,0.00719982674
5.75,0.000209678758,0.00135310616,0.00276114319,0.00424973707,0.00574315287,0.00721171561
5.8,0.000212737864,0.0013631688,0.00277522778,0.00426524335,0.00575799703,0.00722454524
5.85,0.000215916083,0.00137375597,0.00279016577,0.00428179736,0.00577393656,0.00723838453
5.9,0.000219218046,0.00138488879,0.00280599629,0.00429945417,0.00579103787,0.00725330505
5.95,0.000222648465,0.00139658864,0.00282275917,0.00431827008,0.00580936927,0.00726938096
6.0,0.000226212129,0.0014088772,0.00284049488,0.00433830261,0.00582900092,0.007286689
6.05,0.000229913905,0.00142177638,0.00285924452,0.00435961041,0.00585000483,0.00730530847
6.1,0.000233758734,0.00143530836,0.00287904979,0.00438225327,0.00587245478,0.00732532116
6.15,0.00023775163,0.00144949556,0.00289995296,0.00440629206,0.00589642627,0.00734681134
6.2,0.000241897679,0.00146436061,0.00292199683,0.00443178868,0.00592199649,0.00736986566
6.25,0.000246202037,0.00147992634,0.00294522473,0.00445880603,0.00594924424,0.00739457318
6.3,0.000250669929,0.00149621579,0.00296968045,0.00448740795,0.00597824989,0.00742102521
6.35,0.000255306645,0.00151325219,0.00299540824,0.00451765918,0.00600909534,0.00744931534
6.4,0.000260117541,0.00153105891,0.00302245279,0.00454962532,0.00604186392,0.00747953935
6.45,0.000265108037,0.00154965951,0.00305085917,0.00458337279,0.00607664037,0.0075117951
6.5,0.000270283614,0.00156907766,0.00308067282,0.00461896878,0.00611351077,0.00754618253
6.55,0.00027564981,0.00158933719,0.00311193953,0.00465648117,0.00615256244,0.00758280355
6.6,0.000281212226,0.00161046204,0.00314470539,0.00469597856,0.00619388396,0.00762176198
