vds,vb1,vb2,vb3,vb4,vb5,vb6
0.0,-0.0,-0.0,-0.0,-0.0,-0.0,-0.0
0.05,1.15745129e-05,3.76288609e-05,5.72687833e-05,7.16497101e-05,8.15775806e-05,8.79418407e-05
0.1,2.08347379e-05,7.25499913e-05,0.000111713826,0.000140517699,0.000160523148,0.00017346024
0.15,2.79166307e-05,0.00010489252,0.000163464669,0.000206726945,0.000236950002,0.000256658331
0.2,3.29512202e-05,0.000134741335,0.000212606545,0.000270356518,0.000310928028,0.00033759628
0.25,3.61764187e-05,0.000162168493,0.000259211722,0.000331472894,0.000382514988,0.000416322558
0.3,3.80761664e-05,0.000187241288,0.000303347449,0.000390137876,0.000451764412,0.000492881819
0.35,3.92687766e-05,0.000210024495,0.000345078025,0.000446410634,0.000518727625,0.000567316899
0.4,4.01519355e-05,0.000230581289,0.000384465397,0.000500348274,0.000583454285,0.000639669347
0.45,4.08848942e-05,0.000248974025,0.000421569384,0.000552006031,0.000645992559,0.000709979581
0.5,4.15281321e-05,0.000265265442,0.000456447819,0.000601437373,0.000706389201,0.000778286949
0.55,4.21093054e-05,0.000279520883,0.000489156656,0.000648694076,0.000764689611,0.000844629768
0.6,4.26437795e-05,0.00029181279,0.000519750084,0.000693826299,0.000820937876,0.00090904536
0.65,4.31413338e-05,0.000302229933,0.000548280637,0.000736882648,0.000875176827,0.000971570078
0.7,4.36087547e-05,0.000310895015,0.00057479931,0.000777910244,0.000927448076,0.00103223934
0.75,4.40510237e-05,0.000317989968,0.000599355683,0.000816954781,0.000977792067,0.00109108765
0.8,4.44719411e-05,0.000323768333,0.000621998071,0.000854060588,0.00102624812,0.00114814866
0.85,4.48744885e-05,0.00032852097,0.000642773705,0.000889270675,0.00107285447,0.00120345514
0.9,4.52610565e-05,0.00033251131,0.000661729019,0.000922626774,0.00111764831,0.00125703906
0.95,4.56335946e-05,0.000335939166,0.000678910137,0.000954169369,0.00116066583,0.00130893159
1.0,4.59937165e-05,0.00033894418,0.000694363924,0.0009839377,0.00120194225,0.00135916315
1.05,4.6342773e-05,0.000341622745,0.000708140441,0.00101196974,0.00124151185,0.00140776342
1.1,4.66819077e-05,0.000344042667,0.000720298711,0.00103830212,0.00127940799,0.00145476136
1.15,4.70120972e-05,0.000346252985,0.000730918371,0.00106297001,0.00131566315,0.00150018523
1.2,4.73341821e-05,0.000348290155,0.000740115768,0.00108600678,0.00135030889,0.00154406264
1.25,4.76488918e-05,0.000350181963,0.000748051953,0.00110744365,0.00138337588,0.00158642056
1.3,4.79568626e-05,0.000351950042,0.000754918158,0.00112730889,0.00141489389,0.0016272853
1.35,4.82586536e-05,0.000353611559,0.000760905968,0.00114562695,0.00144489165,0.00166668258
1.4,4.85547582e-05,0.000355180358,0.000766183727,0.00116241771,0.00147339684,0.00170463749
1.45,4.88456141e-05,0.000356667759,0.000770888126,0.0011776973,0.00150043582,0.00174117452
1.5,4.91316116e-05,0.000358083141,0.00077512608,0.00119148377,0.00152603339,0.00177631755
1.55,4.94130999e-05,0.000359434354,0.000778980257,0.00120381096,0.00155021231,0.00181008984
1.6,4.96903927e-05,0.00036072804,0.00078251473,0.00121474773,0.00157299255,0.00184251397
1.65,4.99637731e-05,0.000361969861,0.000785779611,0.00122440873,0.00159439021,0.00187361182
1.7,5.0233497e-05,0.00036316469,0.000788814557,0.00123294486,0.00161441608,0.00190340449
1.75,5.0499797e-05,0.000364316745,0.000791651349,0.0012405195,0.00163307401,0.00193191213
1.8,5.07628844e-05,0.000365429703,0.000794315768,0.00124728695,0.00165036025,0.00195915375
1.85,5.10229526e-05,0.000366506789,0.000796828975,0.00125338099,0.00166626608,0.00198514694
1.9,5.12801782e-05,0.000367550847,0.000799208525,0.00125891237,0.00168078708,0.00200990734
1.95,5.15347236e-05,0.000368564398,0.000801469131,0.00126397082,0.0016939397,0.00203344796
2.0,5.1786738e-05,0.000369549685,0.000803623231,0.00126862851,0.001705778,0.00205577819
2.05,5.20363591e-05,0.000370508714,0.000805681432,0.00127294363,0.0017163985,0.00207690236
2.1,5.2283714e-05,0.000371443288,0.000807652846,0.00127696331,0.00172592873,0.00209681817
2.15,5.25289209e-05,0.000372355029,0.00080954536,0.00128072607,0.0017345078,0.00211551538
2.2,5.27720891e-05,0.000373245404,0.000811365836,0.00128426366,0.00174226977,0.00213297629
2.25,5.30133208e-05,0.000374115746,0.00081312029,0.00128760245,0.00174933431,0.00214918019
2.3,5.32527116e-05,0.000374967265,0.000814814017,0.00129076459,0.00175580371,0.00216411399
2.35,5.34903508e-05,0.000375801068,0.000816451703,0.00129376879,0.00176176346,0.00217778698
2.4,5.37263231e-05,0.000376618166,0.000818037518,0.00129663101,0.0017672843,0.0021902428
2.45,5.39607084e-05,0.000377419487,0.000819575183,0.00129936492,0.00177242467,0.00220156073
2.5,5.41935829e-05,0.000378205886,0.000821068037,0.00130198237,0.00177723296,0.00221184573
2.55,5.44250198e-05,0.00037897815,0.000822519084,0.00130449364,0.00178174946,0.00222121365
2.6,5.46550899e-05,0.000379737008,0.000823931037,0.00130690773,0.0017860079,0.00222977855
2.65,5.48838625e-05,0.000380483135,0.000825306356,0.00130923256,0.00179003672,0.00223764506
2.7,5.51114058e-05,0.000381217158,0.000826647276,0.00131147512,0.00179386007,0.00224490511
2.75,5.53377879e-05,0.000381939664,0.000827955835,0.00131364162,0.00179749861,0.00225163758
2.8,5.55630776e-05,0.0003826512,0.000829233896,0.00131573761,0.00180097007,0.00225790937
2.85,5.57873451e-05,0.000383352284,0.000830483168,0.00131776803,0.00180428984,0.00226377694
2.9,5.60106629e-05,0.000384043403,0.000831705221,0.00131973735,0.0018074713,0.00226928791
2.95,5.62331069e-05,0.000384725021,0.000832901501,0.00132164959,0.00181052617,0.0022744826
3.0,5.64547569e-05,0.000385397582,0.000834073346,0.00132350838,0.00181346475,0.00227939528
3.05,5.66756978e-05,0.000386061516,0.000835221996,0.00132531705,0.00181629618,0.00228405519
3.1,5.68960206e-05,0.000386717241,0.000836348602,0.00132707858,0.00181902853,0.00228848746
3.15,5.71158235e-05,0.000387365169,0.000837454239,0.00132879574,0.00182166905,0.00229271375
3.2,5.73352125e-05,0.00038800571,0.000838539915,0.00133047103,0.0018242242,0.00229675291
3.25,5.75543032e-05,0.000388639278,0.000839606577,0.00133210677,0.0018266998,0.00230062134
3.3,5.77732211e-05,0.000389266296,0.000840655122,0.00133370508,0.00182910109,0.00230433344
3.35,5.79921031e-05,0.000389887198,0.000841686406,0.00133526794,0.00183143282,0.00230790192
3.4,5.82110985e-05,0.000390502439,0.00084270125,0.00133679714,0.0018336993,0.002311338
3.45,5.84303702e-05,0.000391112498,0.000843700451,0.00133829439,0.00183590447,0.00231465166
3.5,5.86500955e-05,0.000391717883,0.000844684789,0.00133976126,0.00183805189,0.00231785183
3.55,5.88704675e-05,0.000392319142,0.000845655037,0.00134119921,0.00184014486,0.00232094648
3.6,5.90916959e-05,0.000392916862,0.000846611971,0.00134260964,0.00184218639,0.0023239428
3.65,5.93140082e-05,0.00039351168,0.000847556377,0.00134399384,0.00184417924,0.00232684728
3.7,5.95376506e-05,0.000394104288,0.000848489067,0.00134535306,0.00184612598,0.00232966579
3.75,5.97628892e-05,0.000394695441,0.000849410883,0.0013466885,0.00184802898,0.00233240364
3.8,5.99900107e-05,0.000395285959,0.000850322714,0.00134800131,0.00184989043,0.00233506569
3.85,6.02193234e-05,0.00039587674,0.000851225504,0.00134929262,0.00185171238,0.00233765638
3.9,6.0451158e-05,0.00039646876,0.000852120265,0.00135056355,0.00185349675,0.00234017976
3.95,6.06858689e-05,0.000397063085,0.000853008092,0.00135181522,0.00185524532,0.00234263956
4.0,6.09238342e-05,0.000397660871,0.000853890171,0.00135304878,0.00185695981,0.0023450392
4.05,6.11654573e-05,0.000398263378,0.000854767796,0.00135426539,0.00185864181,0.00234738184
4.1,6.14111666e-05,0.000398871968,0.000855642381,0.00135546628,0.00186029289,0.00234967042
4.15,6.16614174e-05,0.000399488116,0.000856515474,0.00135665274,0.00186191453,0.00235190764
4.2,6.19166911e-05,0.000400113414,0.000857388768,0.00135782613,0.00186350819,0.00235409604
4.25,6.2177497e-05,0.000400749575,0.000858264117,0.00135898794,0.00186507532,0.00235623797
4.3,6.24443718e-05,0.000401398439,0.000859143549,0.00136013976,0.00186661737,0.00235833564
4.35,6.27178806e-05,0.000402061981,0.000860029281,0.00136128334,0.0018681358,0.00236039115
4.4,6.29986171e-05,0.000402742307,0.000860923726,0.00136242057,0.00186963212,0.00236240646
4.45,6.32872038e-05,0.000403441668,0.000861829511,0.00136355354,0.00187110791,0.00236438348
4.5,6.35842924e-05,0.000404162456,0.000862749491,0.00136468453,0.00187256482,0.00236632403
4.55,6.38905641e-05,0.000404907212,0.000863686752,0.00136581605,0.00187400463,0.00236822987
4.6,6.42067294e-05,0.000405678626,0.000864644634,0.00136695087,0.00187542923,0.00237010277
4.65,6.45335285e-05,0.000406479541,0.000865626732,0.00136809201,0.0018768407,0.00237194446
4.7,6.48717312e-05,0.000407312955,0.000866636912,0.00136924277,0.00187824127,0.0023737567
4.75,6.5222137e-05,0.000408182025,0.000867679317,0.00137040677,0.00187963342,0.0023755413
4.8,6.55855751e-05,0.000409090064,0.000868758381,0.00137158797,0.00188101985,0.00237730013
4.85,6.59629039e-05,0.000410040545,0.000869878829,0.00137279064,0.00188240353,0.00237903516
4.9,6.63550114e-05,0.000411037102,0.000871045694,0.00137401946,0.00188378775,0.00238074849
4.95,6.67628146e-05,0.000412083531,0.000872264315,0.00137527947,0.00188517609,0.00238244237
5.0,6.71872597e-05,0.000413183785,0.000873540349,0.00137657611,0.00188657251,0.00238411923
5.05,6.76293212e-05,0.000414341982,0.000874879772,0.00137791524,0.00188798137,0.00238578174
5.1,6.80900022e-05,0.000415562397,0.000876288885,0.00137930316,0.0018894074,0.0023874328
5.15,6.85703338e-05,0.000416849464,0.00087777432,0.00138074662,0.00189085582,0.00238907561
5.2,6.90713747e-05,0.000418207776,0.000879343037,0.00138225281,0.00189233227,0.00239071369
5.25,6.95942109e-05,0.000419642082,0.000881002329,0.00138382942,0.00189384291,0.00239235093
5.3,7.0139955e-05,0.000421157284,0.000882759824,0.00138548461,0.00189539442,0.0023939916
5.35,7.07097462e-05,0.000422758438,0.000884623484,0.00138722703,0.00189699402,0.00239564041
5.4,7.13047496e-05,0.000424450748,0.000886601604,0.00138906583,0.00189864948,0.00239730253
5.45,7.19261553e-05,0.000426239566,0.000888702813,0.00139101068,0.00190036917,0.00239898365
5.5,7.25751786e-05,0.000428130389,0.000890936068,0.00139307175,0.00190216207,0.00240068997
5.55,7.32530589e-05,0.000430128856,0.000893310656,0.00139525974,0.00190403778,0.00240242829
5.6,7.39610592e-05,0.000432240743,0.000895836189,0.00139758587,0.00190600655,0.00240420601
5.65,7.47004658e-05,0.000434471961,0.000898522598,0.00140006187,0.00190807926,0.00240603116
5.7,7.54725874e-05,0.000436828553,0.000901380134,0.00140270001,0.0019102675,0.00240791245
5.75,7.62787548e-05,0.000439316688,0.000904419356,0.00140551307,0.00191258353,0.00240985929
5.8,7.71203197e-05,0.000441942662,0.000907651131,0.00140851437,0.00191504027,0.0024118818
5.85,7.79986549e-05,0.000444712887,0.000911086625,0.00141171773,0.0019176514,0.00241399089
5.9,7.89151529e-05,0.000447633894,0.0009147373,0.0014151375,0.00192043126,0.00241619822
5.95,7.98712256e-05,0.000450712324,0.000918614901,0.00141878853,0.00192339492,0.00241851627
6.0,8.08683038e-05,0.000453954925,0.000922731454,0.00142268618,0.00192655818,0.00242095831
6.05,8.19078361e-05,0.00045736855,0.000927099259,0.00142684631,0.00192993753,0.00242353849
6.1,8.29912887e-05,0.000460960149,0.000931730877,0.00143128526,0.0019335502,0.00242627179
6.15,8.41201446e-05,0.000464736767,0.000936639124,0.00143601985,0.00193741413,0.00242917408
6.2,8.52959025e-05,0.000468705538,0.000941837066,0.0014410674,0.00194154795,0.0024322621
6.25,8.6520077e-05,0.000472873684,0.000947338004,0.00144644565,0.00194597104,0.00243555348
6.3,8.77941972e-05,0.000477248504,0.000953155469,0.00145217283,0.00195070345,0.00243906675
6.35,8.91198063e-05,0.000481837378,0.000959303213,0.00145826757,0.00195576593,0.00244282136
6.4,9.04984611e-05,0.000486647755,0.000965795199,0.00146474896,0.0019611799,0.00244683764
6.45,9.19317311e-05,0.000491687151,0.000972645588,0.00147163648,0.00196696749,0.00245113685
6.5,9.3421198e-05,0.000496963149,0.000979868736,0.00147895004,0.00197315145,0.00245574115
6.55,9.49684551e-05,0.000502483386,0.000987479179,0.0014867099,0.00197975521,0.00246067361
6.6,9.65751064e-05,0.000508255556,0.000995491625,0.00149493673,0.00198680283,0.00246595818
