vds,vb1,vb2,vb3,vb4,vb5,vb6
0.0,-0.0,-0.0,-0.0,-0.0,-0.0,-0.0
0.05,1.53147459e-06,4.7293481e-06,7.38547176e-06,9.48867984e-06,1.10740038e-05,1.2209477e-05
0.1,2.77569121e-06,9.1602444e-06,1.44826823e-05,1.87047788e-05,2.18935267e-05,2.41832066e-05
0.15,3.7900334e-06,1.33495737e-05,2.13484235e-05,2.77049424e-05,3.2515055e-05,3.59775252e-05
0.2,4.59095256e-06,1.73125177e-05,2.79977825e-05,3.6504113e-05,4.29533733e-05,4.76070683e-05
0.25,5.18650454e-06,2.1053789e-05,3.44353754e-05,4.5106763e-05,5.32127978e-05,5.90760047e-05
0.3,5.58802332e-06,2.45754706e-05,4.06631851e-05,5.35147327e-05,6.32950142e-05,7.03858737e-05
0.35,5.82138338e-06,2.78789839e-05,4.66825278e-05,6.17291975e-05,7.32010444e-05,8.15375521e-05
0.4,5.93620046e-06,3.09655849e-05,5.24945471e-05,6.9751161e-05,8.29317399e-05,9.25317477e-05
0.45,5.98902739e-06,3.38364922e-05,5.81003377e-05,7.75815789e-05,9.24879063e-05,0.000103369123
0.5,6.01568808e-06,3.64929233e-05,6.35009764e-05,8.52213906e-05,0.000101870334,0.000114050328
0.55,6.0315147e-06,3.89361122e-05,6.86975303e-05,9.26715266e-05,0.000111079805,0.000124576004
0.6,6.04238934e-06,4.11673267e-05,7.36910588e-05,9.99329106e-05,0.000120117097,0.000134946789
0.65,6.05070815e-06,4.31878948e-05,7.8482614e-05,0.00010700646,0.000128982983,0.00014516332
0.7,6.05755854e-06,4.49992513e-05,8.30732414e-05,0.000113893086,0.000137678231,0.000155226226
0.75,6.06348884e-06,4.66030217e-05,8.74639796e-05,0.000120593695,0.000146203603,0.000165136135
0.8,6.06880161e-06,4.80011821e-05,9.16558608e-05,0.000127109185,0.000154559858,0.000174893673
0.85,6.07367673e-06,4.91963703e-05,9.56499113e-05,0.00013344045,0.000162747751,0.000184499458
0.9,6.07822791e-06,5.01925026e-05,9.94471515e-05,0.000139588377,0.00017076803,0.000193954111
0.95,6.08253073e-06,5.09959673e-05,0.000103048597,0.000145553848,0.000178621441,0.000203258243
1.0,6.08663763e-06,5.16177313e-05,0.000106455257,0.000151337738,0.000186308724,0.000212412466
1.05,6.09058623e-06,5.20761965e-05,0.000109668142,0.000156940917,0.000193830614,0.000221417387
1.1,6.09440441e-06,5.2398879e-05,0.000112688255,0.000162364248,0.000201187843,0.000230273611
1.15,6.09811332e-06,5.2619468e-05,0.000115516606,0.000167608589,0.000208381138,0.000238981738
1.2,6.10172936e-06,5.27703803e-05,0.000118154206,0.000172674792,0.00021541122,0.000247542365
1.25,6.1052655e-06,5.28766459e-05,0.000120602083,0.000177563701,0.000222278809,0.000255956086
1.3,6.10873218e-06,5.29548422e-05,0.000122861287,0.000182276155,0.000228984618,0.000264223493
1.35,6.1121379e-06,5.3015131e-05,0.000124932915,0.000186812988,0.000235529354,0.000272345173
1.4,6.11548969e-06,5.30636206e-05,0.000126818147,0.000191175026,0.000241913724,0.00028032171
1.45,6.11879342e-06,5.31040346e-05,0.000128518312,0.000195363087,0.000248138426,0.000288153686
1.5,6.12205405e-06,5.31387106e-05,0.000130035004,0.000199377985,0.000254204157,0.000295841678
1.55,6.1252758e-06,5.31691678e-05,0.000131370305,0.000203220524,0.000260111607,0.000303386262
1.6,6.1284623e-06,5.31964282e-05,0.000132527179,0.000206891502,0.000265861463,0.000310788007
1.65,6.13161668e-06,5.3221202e-05,0.000133510154,0.000210391708,0.000271454407,0.000318047484
1.7,6.13474168e-06,5.32439975e-05,0.000134326404,0.000213721922,0.000276891114,0.000325165257
1.75,6.13783971e-06,5.32651879e-05,0.000134987143,0.000216882915,0.000282172258,0.000332141888
1.8,6.14091286e-06,5.32850538e-05,0.000135508733,0.000219875448,0.000287298505,0.000338977935
1.85,6.14396301e-06,5.33038106e-05,0.000135912415,0.000222700272,0.000292270517,0.000345673955
1.9,6.14699184e-06,5.33216265e-05,0.000136221941,0.000225358126,0.000297088952,0.000352230499
1.95,6.15000082e-06,5.33386354e-05,0.000136460083,0.000227849741,0.00030175446,0.000358648116
2.0,6.15299132e-06,5.3354945e-05,0.000136645954,0.000230175837,0.000306267686,0.000364927352
2.05,6.15596454e-06,5.33706432e-05,0.000136794112,0.000232337137,0.000310629269,0.00037106875
2.1,6.15892159e-06,5.33858027e-05,0.000136915021,0.000234334375,0.000314839842,0.000377072848
2.15,6.16186348e-06,5.34004842e-05,0.000137016002,0.000236168326,0.00031890003,0.000382940183
2.2,6.16479114e-06,5.34147388e-05,0.000137102147,0.00023783986,0.000322810449,0.000388671287
2.25,6.16770545e-06,5.342861e-05,0.000137177024,0.000239350048,0.000326571709,0.000394266688
2.3,6.17060724e-06,5.34421349e-05,0.000137243173,0.000240700354,0.000330184408,0.000399726912
2.35,6.17349731e-06,5.34553458e-05,0.00013730243,0.00024189297,0.000333649133,0.000405052481
2.4,6.17637646e-06,5.34682704e-05,0.000137356149,0.000242931368,0.000336966459,0.000410243911
2.45,6.17924549e-06,5.34809331e-05,0.000137405349,0.00024382108,0.000340136945,0.000415301718
2.5,6.18210525e-06,5.34933554e-05,0.000137450805,0.000244570597,0.000343161135,0.00042022641
2.55,6.18495664e-06,5.35055562e-05,0.000137493122,0.000245192,0.00034603955,0.000425018493
2.6,6.18780067e-06,5.35175522e-05,0.000137532776,0.00024570078,0.00034877269,0.000429678468
2.65,6.19063846e-06,5.35293585e-05,0.000137570145,0.000246114566,0.000351361025,0.000434206831
2.7,6.19347132e-06,5.35409884e-05,0.000137605539,0.000246451166,0.000353804996,0.000438604072
2.75,6.19630076e-06,5.35524541e-05,0.000137639209,0.000246726789,0.000356105004,0.000442870676
2.8,6.19912854e-06,5.35637663e-05,0.000137671364,0.000246955032,0.000358261413,0.000447007123
2.85,6.20195675e-06,5.35749353e-05,0.000137702177,0.000247146675,0.00036027455,0.000451013884
2.9,6.20478785e-06,5.358597e-05,0.000137731795,0.000247309977,0.000362144711,0.000454891422
2.95,6.20762473e-06,5.35968789e-05,0.000137760343,0.000247451163,0.000363872192,0.000458640195
3.0,6.21047078e-06,5.36076702e-05,0.000137787927,0.0002475749,0.000365457346,0.000462260646
3.05,6.21332996e-06,5.36183513e-05,0.00013781464,0.000247684697,0.000366900701,0.000465753211
3.1,6.2162069e-06,5.36289297e-05,0.00013784056,0.000247783216,0.000368203173,0.000469118311
3.15,6.21910691e-06,5.36394129e-05,0.000137865758,0.000247872494,0.00036936642,0.000472356351
3.2,6.22203617e-06,5.36498085e-05,0.000137890294,0.000247954108,0.000370393356,0.00047546772
3.25,6.22500169e-06,5.36601245e-05,0.000137914222,0.000248029297,0.000371288795,0.000478452784
3.3,6.22801152e-06,5.36703698e-05,0.000137937589,0.000248099041,0.000372060053,0.000481311885
3.35,6.23107473e-06,5.36805542e-05,0.000137960438,0.000248164128,0.000372717206,0.000484045333
3.4,6.23420156e-06,5.36906886e-05,0.000137982807,0.000248225196,0.000373272743,0.000486653403
3.45,6.2374035e-06,5.3700786e-05,0.000138004729,0.000248282769,0.000373740586,0.000489136327
3.5,6.24069336e-06,5.37108612e-05,0.000138026235,0.000248337279,0.000374134811,0.000491494284
3.55,6.24408539e-06,5.37209317e-05,0.000138047354,0.000248389087,0.000374468514,0.000493727394
3.6,6.24759533e-06,5.37310179e-05,0.00013806811,0.000248438498,0.000374753115,0.000495835708
3.65,6.2512405e-06,5.3741144e-05,0.000138088527,0.000248485767,0.00037499812,0.000497819204
3.7,6.25503991e-06,5.37513382e-05,0.000138108626,0.000248531116,0.000375211204,0.00049967778
3.75,6.25901432e-06,5.37616336e-05,0.000138128429,0.000248574734,0.000375398453,0.000501411278
3.8,6.26318629e-06,5.37720686e-05,0.000138147956,0.000248616783,0.000375564658,0.000503019512
3.85,6.26758031e-06,5.37826878e-05,0.000138167225,0.000248657406,0.000375713578,0.000504502356
3.9,6.2722228e-06,5.37935424e-05,0.000138186258,0.000248696728,0.000375848177,0.000505859897
3.95,6.27714223e-06,5.38046913e-05,0.000138205074,0.000248734857,0.0003759708,0.000507092694
4.0,6.28236913e-06,5.38162016e-05,0.000138223696,0.00024877189,0.00037608332,0.000508202147
4.05,6.28793619e-06,5.38281494e-05,0.000138242149,0.000248807913,0.00037618724,0.000509190986
4.1,6.29387827e-06,5.38406207e-05,0.000138260459,0.000248843002,0.000376283782,0.000510063753
4.15,6.30023245e-06,5.38537117e-05,0.000138278658,0.000248877226,0.000376373943,0.000510827137
4.2,6.30703807e-06,5.38675304e-05,0.000138296783,0.000248910645,0.000376458546,0.000511489946
4.25,6.31433678e-06,5.38821965e-05,0.000138314875,0.000248943315,0.000376538276,0.000512062654
4.3,6.32217252e-06,5.38978425e-05,0.000138332984,0.000248975287,0.000376613706,0.000512556603
4.35,6.3305916e-06,5.39146147e-05,0.000138351168,0.000249006606,0.00037668532,0.000512983126
4.4,6.33964266e-06,5.39326735e-05,0.000138369495,0.000249037315,0.000376753529,0.000513352817
4.45,6.34937669e-06,5.39521941e-05,0.000138388045,0.000249067455,0.000376818684,0.000513675083
4.5,6.35984707e-06,5.39733674e-05,0.000138406912,0.000249097062,0.000376881089,0.000513957971
4.55,6.37110954e-06,5.39964006e-05,0.000138426203,0.000249126174,0.000376941004,0.00051420819
4.6,6.38322217e-06,5.40215173e-05,0.000138446042,0.000249154826,0.000376998658,0.000514431245
4.65,6.39624539e-06,5.40489589e-05,0.000138466572,0.000249183055,0.00037705425,0.000514631617
4.7,6.41024195e-06,5.40789841e-05,0.000138487957,0.0002492109,0.000377107956,0.000514812938
4.75,6.42527692e-06,5.41118703e-05,0.000138510383,0.000249238402,0.00037715993,0.000514978156
4.8,6.44141763e-06,5.41479132e-05,0.00013853406,0.000249265605,0.000377210309,0.000515129668
4.85,6.45873366e-06,5.41874279e-05,0.000138559223,0.000249292562,0.000377259215,0.000515269436
4.9,6.47729682e-06,5.42307484e-05,0.000138586137,0.000249319329,0.000377306758,0.00051539907
4.95,6.49718107e-06,5.42782288e-05,0.000138615097,0.000249345976,0.000377353035,0.000515519902
5.0,6.51846252e-06,5.43302425e-05,0.000138646429,0.000249372581,0.000377398136,0.000515633041
5.05,6.54121938e-06,5.43871834e-05,0.000138680494,0.000249399236,0.000377442139,0.000515739416
5.1,6.56553189e-06,5.44494651e-05,0.000138717688,0.00024942605,0.000377485119,0.000515839809
5.15,6.59148227e-06,5.45175216e-05,0.000138758446,0.00024945315,0.000377527144,0.000515934885
5.2,6.61915469e-06,5.45918069e-05,0.000138803239,0.000249480684,0.000377568274,0.000516025212
5.25,6.64863521e-06,5.46727955e-05,0.000138852582,0.000249508825,0.00037760857,0.000516111274
5.3,6.6800117e-06,5.47609816e-05,0.000138907032,0.000249537772,0.000377648088,0.000516193493
5.35,6.7133738e-06,5.48568796e-05,0.000138967188,0.000249567758,0.000377686884,0.000516272233
5.4,6.74881285e-06,5.49610237e-05,0.000139033696,0.000249599045,0.000377725013,0.000516347811
5.45,6.78642182e-06,5.50739678e-05,0.000139107247,0.000249631937,0.000377762532,0.000516420506
5.5,6.82629527e-06,5.51962849e-05,0.000139188581,0.000249666775,0.000377799503,0.000516490563
5.55,6.86852927e-06,5.53285675e-05,0.000139278485,0.000249703948,0.000377835991,0.000516558199
5.6,6.91322131e-06,5.54714266e-05,0.000139377795,0.000249743889,0.000377872071,0.000516623605
5.65,6.96047028e-06,5.56254918e-05,0.000139487398,0.000249787085,0.000377907826,0.000516686953
5.7,7.01037636e-06,5.57914107e-05,0.000139608232,0.000249834079,0.000377943353,0.000516748396
5.75,7.06304098e-06,5.59698487e-05,0.000139741284,0.000249885468,0.000377978765,0.000516808072
5.8,7.11856673e-06,5.61614884e-05,0.000139887594,0.000249941914,0.000378014192,0.000516866104
5.85,7.17705732e-06,5.63670291e-05,0.000140048253,0.000250004143,0.000378049788,0.000516922606
5.9,7.23861746e-06,5.65871866e-05,0.000140224404,0.000250072951,0.000378085735,0.000516977679
5.95,7.30335286e-06,5.68226923e-05,0.000140417242,0.000250149201,0.000378122242,0.000517031419
6.0,7.3713701e-06,5.70742931e-05,0.000140628012,0.000250233834,0.000378159556,0.000517083912
6.05,7.44277661e-06,5.73427505e-05,0.000140858012,0.000250327865,0.000378197961,0.000517135241
6.1,7.51768056e-06,5.76288403e-05,0.000141108589,0.000250432391,0.000378237788,0.000517185483
6.15,7.59619083e-06,5.7933352e-05,0.000141381144,0.000250548588,0.000378279415,0.000517234717
6.2,7.67841692e-06,5.82570881e-05,0.000141677123,0.000250677717,0.000378323274,0.000517283016
6.25,7.76446892e-06,5.86008636e-05,0.000141998024,0.000250821123,0.000378369858,0.000517330461
6.3,7.85445737e-06,5.89655053e-05,0.000142345393,0.000250980242,0.000378419724,0.000517377132
6.35,7.9484933e-06,5.93518516e-05,0.000142720824,0.000251156594,0.0003784735,0.00051742312
6.4,8.04668808e-06,5.97607512e-05,0.000143125957,0.000251351793,0.000378531889,0.000517468521
6.45,8.14915341e-06,6.01930633e-05,0.000143562476,0.000251567541,0.000378595673,0.000517513448
6.5,8.25600125e-06,6.06496563e-05,0.000144032113,0.000251805635,0.000378665723,0.000517558028
6.55,8.36734373e-06,6.11314076e-05,0.000144536641,0.000252067961,0.000378742999,0.00051760241
6.6,8.48329314e-06,6.16392028e-05,0.000145077874,0.000252356501,0.000378828559,0.000517646767
