vds,vb1,vb2,vb3,vb4,vb5,vb6
0.0,-0.0,-0.0,-0.0,-0.0,-0.0,-0.0
0.05,5.48326716e-07,1.62654388e-06,2.47194226e-06,3.12200543e-06,3.6046665e-06,3.94928779e-06
0.1,1.00633752e-06,3.1533451e-06,4.84256488e-06,6.14502022e-06,7.11529859e-06,7.81099504e-06
0.15,1.37915314e-06,4.5854929e-06,7.11694085e-06,9.07396859e-06,1.05366155e-05,1.15896262e-05
0.2,1.66980575e-06,5.92553454e-06,9.2976004e-06,1.19112377e-05,1.38708065e-05,1.52871622e-05
0.25,1.88192904e-06,7.17535141e-06,1.13864062e-05,1.46585528e-05,1.71194054e-05,1.89049351e-05
0.3,2.02256778e-06,8.33663177e-06,1.33850248e-05,1.73174479e-05,2.02837619e-05,2.24440985e-05
0.35,2.10656983e-06,9.41099179e-06,1.52950457e-05,1.98893851e-05,2.33651597e-05,2.59057463e-05
0.4,2.15584903e-06,1.04000095e-05,1.71180122e-05,2.2375785e-05,2.63648469e-05,2.92909427e-05
0.45,2.18826639e-06,1.13052382e-05,1.88554298e-05,2.47780346e-05,2.92840443e-05,3.26007298e-05
0.5,2.2126472e-06,1.21282181e-05,2.05087691e-05,2.70974901e-05,3.21239475e-05,3.58361302e-05
0.55,2.2326171e-06,1.28704928e-05,2.20794678e-05,2.93354782e-05,3.48857277e-05,3.89981474e-05
0.6,2.24978044e-06,1.35336376e-05,2.35689314e-05,3.14932971e-05,3.75705332e-05,4.20877668e-05
0.65,2.26496341e-06,1.41193138e-05,2.49785351e-05,3.3572217e-05,4.0179489e-05,4.51059557e-05
0.7,2.27865241e-06,1.4629374e-05,2.63096244e-05,3.55734812e-05,4.2713698e-05,4.80536639e-05
0.75,2.29116337e-06,1.50660767e-05,2.75635168e-05,3.74983066e-05,4.51742413e-05,5.09318241e-05
0.8,2.30271623e-06,1.54325106e-05,2.87415029e-05,3.93478845e-05,4.75621788e-05,5.37413521e-05
0.85,2.31347183e-06,1.57333415e-05,2.98448485e-05,4.11233814e-05,4.98785495e-05,5.64831471e-05
0.9,2.3235522e-06,1.59757318e-05,3.08747958e-05,4.28259394e-05,5.21243726e-05,5.91580924e-05
0.95,2.33305256e-06,1.61695492e-05,3.18325662e-05,4.44566773e-05,5.43006474e-05,6.17670556e-05
1.0,2.34204886e-06,1.63258573e-05,3.27193637e-05,4.60166906e-05,5.64083541e-05,6.43108888e-05
1.05,2.35060276e-06,1.64545625e-05,3.35363804e-05,4.75070521e-05,5.84484543e-05,6.67904291e-05
1.1,2.35876514e-06,1.6563163e-05,3.4284806e-05,4.89288125e-05,6.04218914e-05,6.92064991e-05
1.15,2.36657845e-06,1.66568784e-05,3.49658463e-05,5.02829999e-05,6.2329591e-05,7.15599071e-05
1.2,2.37407854e-06,1.67392736e-05,3.55807611e-05,5.15706204e-05,6.41724613e-05,7.38514474e-05
1.25,2.38129599e-06,1.68128198e-05,3.61309451e-05,5.2792657e-05,6.59513936e-05,7.60819006e-05
1.3,2.38825706e-06,1.68792763e-05,3.66180978e-05,5.39500688e-05,6.76672621e-05,7.82520342e-05
1.35,2.39498452e-06,1.69399316e-05,3.70445486e-05,5.50437889e-05,6.93209249e-05,8.03626026e-05
1.4,2.40149822e-06,1.69957549e-05,3.74137543e-05,5.60747219e-05,7.09132233e-05,8.24143474e-05
1.45,2.40781558e-06,1.70474924e-05,3.77307586e-05,5.70437382e-05,7.24449822e-05,8.44079981e-05
1.5,2.41395197e-06,1.70957302e-05,3.80021466e-05,5.79516675e-05,7.39170098e-05,8.63442716e-05
1.55,2.41992104e-06,1.71409371e-05,3.82352715e-05,5.87992878e-05,7.5330097e-05,8.8223873e-05
1.6,2.42573493e-06,1.71834936e-05,3.84372057e-05,5.95873109e-05,7.66850169e-05,9.00474957e-05
1.65,2.43140452e-06,1.72237129e-05,3.86140371e-05,6.03163678e-05,7.7982523e-05,9.18158212e-05
1.7,2.43693959e-06,1.72618561e-05,3.87706656e-05,6.0987001e-05,7.92233479e-05,9.35295194e-05
1.75,2.44234895e-06,1.72981425e-05,3.89109091e-05,6.15996952e-05,8.04081996e-05,9.51892486e-05
1.8,2.44764059e-06,1.73327587e-05,3.90377124e-05,6.21550024e-05,8.15377576e-05,9.67956554e-05
1.85,2.45282175e-06,1.73658644e-05,3.91533529e-05,6.26538447e-05,8.26126661e-05,9.83493742e-05
1.9,2.45789903e-06,1.73975976e-05,3.92596073e-05,6.30980117e-05,8.36335247e-05,9.98510273e-05
1.95,2.46287846e-06,1.74280781e-05,3.9357878e-05,6.3490662e-05,8.46008739e-05,0.000101301224
2.0,2.46776557e-06,1.74574107e-05,3.94492855e-05,6.38364463e-05,8.55151756e-05,0.000102700559
2.05,2.47256542e-06,1.74856878e-05,3.95347367e-05,6.41410593e-05,8.63767856e-05,0.000104049614
2.1,2.4772827e-06,1.75129908e-05,3.96149737e-05,6.44104745e-05,8.71859191e-05,0.00010534895
2.15,2.48192171e-06,1.75393921e-05,3.96906107e-05,6.46502858e-05,8.79426141e-05,0.000106599113
2.2,2.48648645e-06,1.75649565e-05,3.97621612e-05,6.48653567e-05,8.86467132e-05,0.000107800621
2.25,2.49098062e-06,1.7589742e-05,3.98300583e-05,6.50597369e-05,8.9297905e-05,0.000108953967
2.3,2.49540769e-06,1.76138007e-05,3.98946707e-05,6.52367252e-05,8.98958963e-05,0.000110059606
2.35,2.49977089e-06,1.76371796e-05,3.99563142e-05,6.53989871e-05,9.04407774e-05,0.000111117947
2.4,2.50407325e-06,1.76599215e-05,4.0015262e-05,6.5548676e-05,9.09335328e-05,0.000112129335
2.45,2.50831763e-06,1.76820652e-05,4.00717511e-05,6.56875394e-05,9.13764723e-05,0.000113094036
2.5,2.51250677e-06,1.77036459e-05,4.01259891e-05,6.58170054e-05,9.17732931e-05,0.0001140122
2.55,2.51664327e-06,1.77246961e-05,4.01781585e-05,6.59382501e-05,9.21286973e-05,0.000114883831
2.6,2.52072965e-06,1.77452453e-05,4.02284204e-05,6.60522506e-05,9.2447788e-05,0.000115708744
2.65,2.52476836e-06,1.77653208e-05,4.02769182e-05,6.61598252e-05,9.27355286e-05,0.000116486522
2.7,2.52876181e-06,1.77849478e-05,4.03237795e-05,6.62616648e-05,9.29964123e-05,0.000117216512
2.75,2.53271241e-06,1.78041493e-05,4.03691187e-05,6.63583574e-05,9.32343297e-05,0.000117897892
2.8,2.53662258e-06,1.78229471e-05,4.04130388e-05,6.64504067e-05,9.3452566e-05,0.000118529867
2.85,2.54049482e-06,1.78413611e-05,4.04556325e-05,6.65382473e-05,9.36538606e-05,0.000119112042
2.9,2.54433169e-06,1.78594101e-05,4.0496984e-05,6.66222564e-05,9.38404874e-05,0.000119644863
2.95,2.54813586e-06,1.78771116e-05,4.05371695e-05,6.67027635e-05,9.40143348e-05,0.000120129975
3.0,2.55191019e-06,1.78944823e-05,4.05762587e-05,6.67800579e-05,9.41769768e-05,0.000120570257
3.05,2.55565771e-06,1.7911538e-05,4.0614315e-05,6.68543949e-05,9.43297314e-05,0.000120969541
3.1,2.55938167e-06,1.79282938e-05,4.06513966e-05,6.69260006e-05,9.44737095e-05,0.000121332142
3.15,2.56308561e-06,1.79447644e-05,4.06875571e-05,6.69950767e-05,9.46098526e-05,0.000121662414
3.2,2.56677336e-06,1.79609641e-05,4.07228457e-05,6.70618035e-05,9.47389646e-05,0.000121964443
3.25,2.57044912e-06,1.79769071e-05,4.0757308e-05,6.71263425e-05,9.48617353e-05,0.00012224189
3.3,2.57411744e-06,1.79926075e-05,4.07909863e-05,6.71888397e-05,9.49787608e-05,0.000122497941
3.35,2.57778335e-06,1.80080799e-05,4.08239198e-05,6.72494267e-05,9.50905592e-05,0.000122735324
3.4,2.58145233e-06,1.80233392e-05,4.08561453e-05,6.73082231e-05,9.51975827e-05,0.000122956356
3.45,2.58513036e-06,1.80384008e-05,4.08876973e-05,6.73653375e-05,9.53002288e-05,0.000123163001
3.5,2.588824e-06,1.80532812e-05,4.09186086e-05,6.74208691e-05,9.53988479e-05,0.000123356921
3.55,2.59254041e-06,1.80679978e-05,4.09489102e-05,6.74749086e-05,9.54937508e-05,0.000123539532
3.6,2.59628735e-06,1.80825695e-05,4.0978632e-05,6.75275392e-05,9.55852142e-05,0.000123712039
3.65,2.60007331e-06,1.80970167e-05,4.10078032e-05,6.75788376e-05,9.56734852e-05,0.000123875476
3.7,2.60390745e-06,1.81113617e-05,4.10364522e-05,6.76288744e-05,9.57587856e-05,0.000124030734
3.75,2.6077997e-06,1.8125629e-05,4.10646075e-05,6.76777151e-05,9.58413153e-05,0.000124178582
3.8,2.61176076e-06,1.81398452e-05,4.10922978e-05,6.77254203e-05,9.59212546e-05,0.000124319693
3.85,2.61580217e-06,1.815404e-05,4.11195525e-05,6.7772047e-05,9.59987672e-05,0.000124454652
3.9,2.61993631e-06,1.81682458e-05,4.11464021e-05,6.78176481e-05,9.60740017e-05,0.000124583975
3.95,2.62417642e-06,1.81824982e-05,4.11728788e-05,6.7862274e-05,9.61470936e-05,0.000124708116
4.0,2.62853668e-06,1.81968363e-05,4.11990168e-05,6.79059723e-05,9.6218167e-05,0.000124827479
4.05,2.63303217e-06,1.82113032e-05,4.1224853e-05,6.79487887e-05,9.62873353e-05,0.000124942422
4.1,2.63767894e-06,1.82259458e-05,4.12504272e-05,6.79907675e-05,9.63547031e-05,0.000125053265
4.15,2.64249401e-06,1.82408155e-05,4.12757833e-05,6.8031952e-05,9.64203667e-05,0.000125160297
4.2,2.6474954e-06,1.82559683e-05,4.13009691e-05,6.80723854e-05,9.64844151e-05,0.000125263775
4.25,2.65270212e-06,1.82714649e-05,4.13260376e-05,6.8112111e-05,9.65469311e-05,0.000125363934
4.3,2.6581342e-06,1.82873712e-05,4.1351047e-05,6.81511731e-05,9.66079915e-05,0.000125460985
4.35,2.66381272e-06,1.83037584e-05,4.13760617e-05,6.81896178e-05,9.66676686e-05,0.000125555121
4.4,2.6697598e-06,1.83207031e-05,4.1401153e-05,6.82274934e-05,9.67260303e-05,0.000125646515
4.45,2.67599857e-06,1.83382878e-05,4.14263993e-05,6.82648513e-05,9.67831408e-05,0.000125735329
4.5,2.68255325e-06,1.8356601e-05,4.14518871e-05,6.83017471e-05,9.68390618e-05,0.000125821709
4.55,2.68944908e-06,1.83757371e-05,4.14777115e-05,6.83382411e-05,9.68938527e-05,0.00012590579
4.6,2.69671237e-06,1.83957969e-05,4.15039766e-05,6.83743993e-05,9.69475715e-05,0.000125987695
4.65,2.70437047e-06,1.84168876e-05,4.15307967e-05,6.84102942e-05,9.70002757e-05,0.00012606754
4.7,2.71245176e-06,1.84391229e-05,4.15582961e-05,6.84460062e-05,9.7052023e-05,0.000126145429
4.75,2.72098566e-06,1.84626233e-05,4.15866104e-05,6.84816239e-05,9.71028722e-05,0.000126221463
4.8,2.73000262e-06,1.84875158e-05,4.16158863e-05,6.85172459e-05,9.7152884e-05,0.000126295734
4.85,2.73953409e-06,1.85139346e-05,4.16462828e-05,6.85529809e-05,9.72021224e-05,0.000126368327
4.9,2.74961252e-06,1.85420205e-05,4.16779714e-05,6.85889497e-05,9.72506551e-05,0.000126439325
4.95,2.76027137e-06,1.85719214e-05,4.17111364e-05,6.86252853e-05,9.72985554e-05,0.000126508806
5.0,2.77154502e-06,1.86037919e-05,4.17459756e-05,6.86621346e-05,9.73459026e-05,0.000126576844
5.05,2.78346885e-06,1.8637794e-05,4.17827007e-05,6.86996592e-05,9.73927838e-05,0.000126643512
5.1,2.79607915e-06,1.86740965e-05,4.18215373e-05,6.87380361e-05,9.74392948e-05,0.000126708882
5.15,2.80941311e-06,1.87128749e-05,4.18627256e-05,6.87774593e-05,9.74855417e-05,0.000126773024
5.2,2.82350884e-06,1.8754312e-05,4.19065207e-05,6.88181401e-05,9.75316421e-05,0.000126836012
5.25,2.83840528e-06,1.87985973e-05,4.19531923e-05,6.88603083e-05,9.75777266e-05,0.000126897918
5.3,2.85414225e-06,1.88459271e-05,4.20030258e-05,6.89042132e-05,9.76239401e-05,0.000126958821
5.35,2.87076035e-06,1.88965044e-05,4.20563217e-05,6.89501243e-05,9.76704433e-05,0.000127018802
5.4,2.88830101e-06,1.8950539e-05,4.21133961e-05,6.89983319e-05,9.77174143e-05,0.000127077949
5.45,2.90680641e-06,1.90082471e-05,4.21745806e-05,6.90491481e-05,9.77650498e-05,0.000127136356
5.5,2.92631947e-06,1.90698513e-05,4.22402227e-05,6.91029073e-05,9.78135666e-05,0.000127194127
5.55,2.94688382e-06,1.91355807e-05,4.23106855e-05,6.91599672e-05,9.78632031e-05,0.000127251378
5.6,2.96854378e-06,1.92056702e-05,4.23863475e-05,6.92207087e-05,9.79142209e-05,0.000127308234
5.65,2.99134433e-06,1.9280361e-05,4.24676032e-05,6.9285537e-05,9.79669056e-05,0.000127364835
5.7,3.01533107e-06,1.93599002e-05,4.25548625e-05,6.93548817e-05,9.80215685e-05,0.000127421338
5.75,3.0405502e-06,1.94445405e-05,4.26485506e-05,6.94291974e-05,9.80785478e-05,0.000127477916
5.8,3.06704851e-06,1.95345401e-05,4.27491081e-05,6.95089636e-05,9.81382101e-05,0.000127534762
5.85,3.09487329e-06,1.96301626e-05,4.28569907e-05,6.95946858e-05,9.82009508e-05,0.00012759209
5.9,3.12407239e-06,1.97316768e-05,4.29726689e-05,6.96868945e-05,9.82671959e-05,0.000127650137
5.95,3.15469411e-06,1.98393565e-05,4.30966277e-05,6.97861464e-05,9.83374027e-05,0.000127709164
6.0,3.18678722e-06,1.99534804e-05,4.32293666e-05,6.98930239e-05,9.84120606e-05,0.000127769462
6.05,3.2204009e-06,2.00743317e-05,4.33713994e-05,7.00081351e-05,9.84916922e-05,0.000127831347
6.1,3.25558474e-06,2.02021979e-05,4.35232532e-05,7.01321141e-05,9.85768539e-05,0.000127895168
6.15,3.29238869e-06,2.0337371e-05,4.3685469e-05,7.02656203e-05,9.86681367e-05,0.000127961305
6.2,3.33086304e-06,2.04801468e-05,4.38586004e-05,7.04093389e-05,9.87661665e-05,0.000128030172
6.25,3.37105839e-06,2.0630825e-05,4.40432142e-05,7.05639802e-05,9.88716049e-05,0.000128102219
6.3,3.41302563e-06,2.07897088e-05,4.42398892e-05,7.07302794e-05,9.89851495e-05,0.000128177932
6.35,3.4568159e-06,2.0957105e-05,4.44492162e-05,7.09089965e-05,9.91075341e-05,0.000128257838
6.4,3.50248056e-06,2.11333233e-05,4.46717976e-05,7.11009156e-05,9.92395289e-05,0.000128342501
6.45,3.55007119e-06,2.13186767e-05,4.49082469e-05,7.13068448e-05,9.93819408e-05,0.000128432528
6.5,3.59963954e-06,2.15134807e-05,4.5159188e-05,7.15276155e-05,9.95356136e-05,0.000128528568
6.55,3.6512375e-06,2.17180536e-05,4.54252554e-05,7.17640821e-05,9.97014272e-05,0.000128631313
6.6,3.70491709e-06,2.19327158e-05,4.5707093e-05,7.20171212e-05,9.98802985e-05,0.0001287415
