vds,vb1,vb2,vb3,vb4,vb5,vb6
0.0,-0.0,-0.0,-0.0,-0.0,-0.0,-0.0
0.05,9.90690188e-07,2.56660631e-06,3.77406535e-06,4.68890883e-06,5.35995512e-06,5.83343312e-06
0.1,1.83589206e-06,4.97568423e-06,7.38779905e-06,9.22081328e-06,1.05705366e-05,1.15276068e-05
0.15,2.54201358e-06,7.23380348e-06,1.08477778e-05,1.36020316e-05,1.56376885e-05,1.70880671e-05
0.2,3.11340547e-06,9.34494702e-06,1.41579877e-05,1.78363028e-05,2.05647909e-05,2.25178106e-05
0.25,3.55504554e-06,1.13123896e-05,1.73217007e-05,2.19266629e-05,2.53545353e-05,2.78191588e-05
0.3,3.87529051e-06,1.31391737e-05,2.03419467e-05,2.58759167e-05,3.00093961e-05,3.29942297e-05
0.35,4.09122189e-06,1.48282349e-05,2.32216345e-05,2.9686757e-05,3.45317497e-05,3.80450568e-05
0.4,4.23291337e-06,1.63824427e-05,2.59635833e-05,3.33617959e-05,3.89239051e-05,4.29736188e-05
0.45,4.33314065e-06,1.7804623e-05,2.85705334e-05,3.69035741e-05,4.31881123e-05,4.7781848e-05
0.5,4.41248613e-06,1.90975847e-05,3.10451515e-05,4.03145638e-05,4.73265651e-05,5.24716331e-05
0.55,4.48021521e-06,2.02641602e-05,3.33900347e-05,4.35971719e-05,5.13414027e-05,5.70448195e-05
0.6,4.54041456e-06,2.13072765e-05,3.56077154e-05,4.67537419e-05,5.52347111e-05,6.1503211e-05
0.65,4.59516442e-06,2.22300871e-05,3.77006656e-05,4.9786557e-05,5.90085245e-05,6.58485699e-05
0.7,4.64569798e-06,2.30362294e-05,3.96713022e-05,5.26978423e-05,6.26648269e-05,7.00826182e-05
0.75,4.69283238e-06,2.3730325e-05,4.1521993e-05,5.54897683e-05,6.62055541e-05,7.42070387e-05
0.8,4.73715049e-06,2.43188866e-05,4.32550622e-05,5.81644535e-05,6.96325952e-05,7.82234758e-05
0.85,4.77908907e-06,2.48115963e-05,4.48727991e-05,6.07239674e-05,7.29477949e-05,8.21335367e-05
0.9,4.81898687e-06,2.52220813e-05,4.63774668e-05,6.3170334e-05,7.61529555e-05,8.59387929e-05
0.95,4.85711332e-06,2.55665503e-05,4.7771317e-05,6.5505534e-05,7.92498389e-05,8.96407811e-05
1.0,4.89368696e-06,2.58605002e-05,4.90566101e-05,6.77315078e-05,8.2240169e-05,9.32410052e-05
1.05,4.9288879e-06,2.61162869e-05,5.02356495e-05,6.98501579e-05,8.51256337e-05,9.67409371e-05
1.1,4.9628665e-06,2.63428475e-05,5.13108417e-05,7.18633506e-05,8.79078869e-05,0.000100142019
1.15,4.9957497e-06,2.65464897e-05,5.22848036e-05,7.37729181e-05,9.05885504e-05,0.000103445663
1.2,5.02764569e-06,2.67317255e-05,5.31605629e-05,7.55806591e-05,9.31692155e-05,0.000106653256
1.25,5.0586475e-06,2.69018659e-05,5.39419112e-05,7.72883397e-05,9.5651445e-05,0.000109766158
1.3,5.08883567e-06,2.70594057e-05,5.46339444e-05,7.88976918e-05,9.8036774e-05,0.000112785704
1.35,5.11828046e-06,2.72062694e-05,5.52436306e-05,8.04104115e-05,0.000100326711,0.000115713207
1.4,5.14704348e-06,2.73439727e-05,5.57799246e-05,8.18281544e-05,0.000102522739,0.000118549957
1.45,5.17517909e-06,2.74737307e-05,5.62530248e-05,8.31525284e-05,0.000104626315,0.000121297223
1.5,5.2027355e-06,2.75965321e-05,5.6673097e-05,8.43850846e-05,0.000106638869,0.000123956256
1.55,5.22975563e-06,2.77131924e-05,5.70492398e-05,8.55273126e-05,0.000108561804,0.000126528286
1.6,5.25627789e-06,2.78243921e-05,5.73890529e-05,8.6580661e-05,0.000110396493,0.000129014525
1.65,5.28233676e-06,2.79307047e-05,5.76986625e-05,8.7546638e-05,0.000112144273,0.000131416167
1.7,5.30796335e-06,2.80326183e-05,5.79829411e-05,8.84270892e-05,0.000113806438,0.000133734389
1.75,5.33318578e-06,2.81305517e-05,5.82457623e-05,8.92247324e-05,0.000115384229,0.00013597035
1.8,5.35802957e-06,2.82248666e-05,5.84902243e-05,8.99438155e-05,0.000116878814,0.000138125189
1.85,5.38251795e-06,2.8315878e-05,5.87188278e-05,9.05904548e-05,0.000118291262,0.000140200026
1.9,5.40667212e-06,2.84038614e-05,5.89336114e-05,9.11722685e-05,0.000119622504,0.000142195961
1.95,5.43051149e-06,2.84890597e-05,5.91362546e-05,9.16974783e-05,0.000120873291,0.000144114067
2.0,5.45405385e-06,2.85716875e-05,5.93281546e-05,9.21740148e-05,0.000122044149,0.00014595539
2.05,5.4773156e-06,2.86519357e-05,5.95104846e-05,9.26089714e-05,0.000123135396,0.000147720939
2.1,5.50031182e-06,2.87299751e-05,5.96842385e-05,9.30084138e-05,0.000124147291,0.000149411679
2.15,5.52305647e-06,2.88059584e-05,5.98502649e-05,9.33774085e-05,0.000125080435,0.000151028512
2.2,5.54556247e-06,2.88800234e-05,6.00092936e-05,9.37201467e-05,0.000125936403,0.000152572258
2.25,5.56784183e-06,2.89522944e-05,6.01619568e-05,9.40400892e-05,0.000126718362,0.000154043624
2.3,5.58990573e-06,2.90228842e-05,6.03088056e-05,9.43401029e-05,0.000127431252,0.000155443158
2.35,5.6117646e-06,2.90918952e-05,6.04503228e-05,9.46225746e-05,0.000128081374,0.000156771196
2.4,5.63342822e-06,2.91594209e-05,6.05869342e-05,9.48895053e-05,0.000128675636,0.000158027803
2.45,5.65490579e-06,2.92255468e-05,6.07190166e-05,9.51425838e-05,0.000129220852,0.000159212746
2.5,5.676206e-06,2.92903511e-05,6.08469055e-05,9.53832459e-05,0.00012972329,0.000160325554
2.55,5.69733709e-06,2.93539059e-05,6.09709006e-05,9.56127205e-05,0.000130188472,0.00016136575
2.6,5.71830697e-06,2.94162776e-05,6.10912706e-05,9.58320663e-05,0.00013062115,0.000162333317
2.65,5.73912321e-06,2.94775273e-05,6.12082578e-05,9.60422012e-05,0.000131025364,0.00016322929
2.7,5.75979319e-06,2.95377119e-05,6.13220808e-05,9.62439258e-05,0.000131404529,0.000164056209
2.75,5.78032412e-06,2.95968839e-05,6.1432938e-05,9.6437942e-05,0.000131761537,0.00016481816
2.8,5.80072316e-06,2.96550925e-05,6.15410098e-05,9.66248683e-05,0.00013209884,0.000165520379
2.85,5.82099746e-06,2.97123834e-05,6.16464605e-05,9.68052526e-05,0.000132418527,0.000166168663
2.9,5.84115426e-06,2.97687994e-05,6.17494406e-05,9.69795823e-05,0.000132722388,0.000166768824
2.95,5.86120097e-06,2.98243811e-05,6.18500879e-05,9.71482925e-05,0.000133011961,0.000167326326
3.0,5.88114527e-06,2.98791665e-05,6.19485293e-05,9.73117738e-05,0.000133288579,0.000167846096
3.05,5.90099519e-06,2.99331919e-05,6.20448815e-05,9.74703775e-05,0.000133553403,0.000168332478
3.1,5.9207592e-06,2.99864921e-05,6.21392524e-05,9.76244209e-05,0.000133807445,0.000168789242
3.15,5.94044632e-06,3.00391005e-05,6.2231742e-05,9.77741917e-05,0.000134051598,0.000169219644
3.2,5.96006624e-06,3.00910499e-05,6.23224431e-05,9.79199513e-05,0.000134286649,0.000169626487
3.25,5.97962938e-06,3.01423724e-05,6.24114421e-05,9.80619378e-05,0.000134513296,0.00017001219
3.3,5.99914702e-06,3.01930997e-05,6.24988199e-05,9.82003691e-05,0.00013473216,0.00017037884
3.35,6.01863141e-06,3.02432639e-05,6.25846522e-05,9.83354448e-05,0.000134943799,0.000170728249
3.4,6.03809588e-06,3.02928978e-05,6.26690105e-05,9.84673482e-05,0.000135148711,0.000171061992
3.45,6.05755494e-06,3.03420348e-05,6.27519624e-05,9.85962483e-05,0.000135347347,0.000171381449
3.5,6.0770244e-06,3.03907099e-05,6.28335727e-05,9.87223009e-05,0.000135540113,0.000171687827
3.55,6.09652147e-06,3.043896e-05,6.29139033e-05,9.88456505e-05,0.000135727378,0.000171982196
3.6,6.11606487e-06,3.04868239e-05,6.29930145e-05,9.8966431e-05,0.000135909478,0.000172265498
3.65,6.13567494e-06,3.05343435e-05,6.30709651e-05,9.90847672e-05,0.000136086717,0.000172538575
3.7,6.15537377e-06,3.05815637e-05,6.31478135e-05,9.92007755e-05,0.000136259376,0.000172802176
3.75,6.17518525e-06,3.0628533e-05,6.32236181e-05,9.93145652e-05,0.000136427712,0.000173056972
3.8,6.1951352e-06,3.06753042e-05,6.32984384e-05,9.94262392e-05,0.000136591959,0.000173303567
3.85,6.2152515e-06,3.07219348e-05,6.33723351e-05,9.95358948e-05,0.000136752335,0.000173542505
3.9,6.2355641e-06,3.07684873e-05,6.34453717e-05,9.9643625e-05,0.00013690904,0.00017377428
3.95,6.25610521e-06,3.08150301e-05,6.35176147e-05,9.9749519e-05,0.000137062261,0.000173999338
4.0,6.27690929e-06,3.08616374e-05,6.35891347e-05,9.98536632e-05,0.000137212168,0.000174218087
4.05,6.29801321e-06,3.09083905e-05,6.36600075e-05,9.99561423e-05,0.000137358924,0.000174430898
4.1,6.31945626e-06,3.09553775e-05,6.37303146e-05,0.00010005704,0.000137502677,0.000174638111
4.15,6.34128027e-06,3.10026944e-05,6.38001445e-05,0.00010015644,0.000137643568,0.000174840037
4.2,6.36352964e-06,3.10504451e-05,6.38695935e-05,0.000100254429,0.00013778173,0.000175036965
4.25,6.38625142e-06,3.10987421e-05,6.39387669e-05,0.000100351093,0.000137917287,0.000175229157
4.3,6.40949536e-06,3.1147707e-05,6.40077796e-05,0.000100446525,0.000138050359,0.000175416858
4.35,6.43331395e-06,3.11974708e-05,6.40767577e-05,0.00010054082,0.000138181061,0.000175600294
4.4,6.45776246e-06,3.1248174e-05,6.41458388e-05,0.00010063408,0.000138309503,0.000175779676
4.45,6.48289899e-06,3.12999677e-05,6.42151736e-05,0.000100726417,0.000138435795,0.000175955198
4.5,6.50878448e-06,3.13530133e-05,6.42849266e-05,0.000100817949,0.000138560044,0.000176127043
4.55,6.53548277e-06,3.14074829e-05,6.43552772e-05,0.000100908806,0.000138682358,0.000176295382
4.6,6.56306058e-06,3.14635601e-05,6.44264206e-05,0.000100999129,0.000138802847,0.000176460376
4.65,6.59158754e-06,3.15214395e-05,6.44985686e-05,0.000101089072,0.000138921624,0.000176622178
4.7,6.6211362e-06,3.15813277e-05,6.45719508e-05,0.000101178806,0.000139038807,0.000176780932
4.75,6.65178203e-06,3.1643443e-05,6.46468151e-05,0.000101268518,0.00013915452,0.000176936778
4.8,6.68360343e-06,3.17080158e-05,6.4723429e-05,0.000101358411,0.000139268896,0.000177089849
4.85,6.7166817e-06,3.17752885e-05,6.48020797e-05,0.00010144871,0.000139382078,0.000177240277
4.9,6.75110102e-06,3.18455161e-05,6.48830755e-05,0.000101539661,0.00013949422,0.000177388193
4.95,6.78694849e-06,3.19189658e-05,6.49667461e-05,0.000101631533,0.00013960549,0.000177533725
5.0,6.82431405e-06,3.19959175e-05,6.50534432e-05,0.000101724617,0.000139716075,0.000177677006
5.05,6.86329047e-06,3.20766635e-05,6.51435413e-05,0.000101819233,0.000139826176,0.000177818172
5.1,6.90397333e-06,3.21615085e-05,6.52374381e-05,0.000101915725,0.000139936016,0.000177957362
5.15,6.94646098e-06,3.225077e-05,6.53355547e-05,0.000102014468,0.000140045841,0.000178094727
5.2,6.99085451e-06,3.23447778e-05,6.54383364e-05,0.000102115866,0.00014015592,0.000178230424
5.25,7.0372577e-06,3.24438741e-05,6.5546253e-05,0.000102220354,0.000140266549,0.000178364624
5.3,7.08577698e-06,3.25484135e-05,6.56597986e-05,0.000102328398,0.000140378054,0.000178497511
5.35,7.13652138e-06,3.26587629e-05,6.57794923e-05,0.000102440499,0.000140490791,0.000178629289
5.4,7.18960249e-06,3.2775301e-05,6.59058781e-05,0.000102557192,0.000140605147,0.000178760177
5.45,7.24513439e-06,3.28984187e-05,6.60395252e-05,0.000102679045,0.000140721547,0.000178890419
5.5,7.30323363e-06,3.30285185e-05,6.61810279e-05,0.000102806666,0.00014084045,0.000179020283
5.55,7.36401913e-06,3.31660143e-05,6.63310053e-05,0.000102940696,0.000140962357,0.000179150064
5.6,7.42761214e-06,3.33113317e-05,6.64901019e-05,0.000103081814,0.000141087806,0.000179280087
5.65,7.4941362e-06,3.3464907e-05,6.66589868e-05,0.000103230739,0.000141217379,0.000179410711
5.7,7.56371705e-06,3.36271877e-05,6.6838354e-05,0.000103388226,0.000141351703,0.000179542328
5.75,7.63648257e-06,3.37986315e-05,6.70289217e-05,0.000103555069,0.000141491448,0.00017967537
5.8,7.71256274e-06,3.39797069e-05,6.72314325e-05,0.000103732101,0.000141637331,0.00017981031
5.85,7.79208955e-06,3.4170892e-05,6.74466528e-05,0.000103920195,0.00014179012,0.000179947664
5.9,7.87519693e-06,3.43726749e-05,6.76753726e-05,0.000104120262,0.000141950628,0.000180087992
5.95,7.9620207e-06,3.4585553e-05,6.79184048e-05,0.000104333253,0.00014211972,0.000180231907
6.0,8.05269851e-06,3.48100329e-05,6.81765852e-05,0.000104560156,0.000142298313,0.000180380067
6.05,8.14736973e-06,3.50466299e-05,6.84507714e-05,0.000104802,0.000142487374,0.000180533187
6.1,8.24617545e-06,3.52958679e-05,6.87418432e-05,0.000105059852,0.000142687924,0.000180692035
6.15,8.34925833e-06,3.55582788e-05,6.9050701e-05,0.000105334816,0.000142901036,0.000180857438
6.2,8.45676259e-06,3.58344024e-05,6.93782662e-05,0.000105628034,0.000143127836,0.000181030279
6.25,8.56883393e-06,3.61247859e-05,6.97254799e-05,0.000105940687,0.000143369505,0.000181211504
6.3,8.68561945e-06,3.64299836e-05,7.00933026e-05,0.00010627399,0.000143627277,0.000181402119
6.35,8.80726759e-06,3.67505566e-05,7.04827136e-05,0.000106629196,0.000143902438,0.000181603195
6.4,8.93392806e-06,3.70870725e-05,7.08947102e-05,0.000107007593,0.000144196331,0.000181815868
6.45,9.06575176e-06,3.74401046e-05,7.13303071e-05,0.000107410502,0.000144510348,0.000182041337
6.5,9.20289076e-06,3.78102324e-05,7.17905358e-05,0.000107839279,0.000144845938,0.00018228087
6.55,9.34549816e-06,3.81980405e-05,7.22764437e-05,0.000108295314,0.0001452046,0.000182535801
6.6,9.4937281e-06,3.86041184e-05,7.27890935e-05,0.000108780027,0.000145587885,0.000182807532
