vds,vb1,vb2,vb3,vb4,vb5,vb6
0.0,-0.0,-0.0,-0.0,-0.0,-0.0,-0.0
0.05,1.56258668e-07,6.50080365e-07,1.07195057e-06,1.41111934e-06,1.6686792e-06,1.8532252e-06
0.1,2.813443e-07,1.26738401e-06,2.11310216e-06,2.79409004e-06,3.31210293e-06,3.68409117e-06
0.15,3.75619934e-07,1.85199813e-06,3.12353715e-06,4.1489845e-06,4.93033188e-06,5.4926473e-06
0.2,4.4002012e-07,2.40401003e-06,4.10333758e-06,5.4758748e-06,6.52342651e-06,7.27894278e-06
0.25,4.77316271e-07,2.9235074e-06,5.05258516e-06,6.77483276e-06,8.09144703e-06,9.04302662e-06
0.3,4.94425703e-07,3.41057857e-06,5.97136136e-06,8.04592994e-06,9.63445348e-06,1.07849477e-05
0.35,5.01090011e-07,3.86531301e-06,6.85974737e-06,9.28923765e-06,1.11525057e-05,1.25047547e-05
0.4,5.03861139e-07,4.28780186e-06,7.71782412e-06,1.0504827e-05,1.26456633e-05,1.42024963e-05
0.45,5.05277186e-07,4.67813905e-06,8.54567229e-06,1.16927687e-05,1.41139857e-05,1.58782209e-05
0.5,5.0616483e-07,5.03642287e-06,9.34337233e-06,1.28531334e-05,1.55575323e-05,1.75319767e-05
0.55,5.06813904e-07,5.3627587e-06,1.01110045e-05,1.39859914e-05,1.6976362e-05,1.9163812e-05
0.6,5.07340759e-07,5.65726375e-06,1.08486487e-05,1.50914127e-05,1.83705337e-05,2.07737747e-05
0.65,5.07798388e-07,5.92007537e-06,1.15563848e-05,1.61694673e-05,1.97401061e-05,2.23619127e-05
0.7,5.08213576e-07,6.15136651e-06,1.22342925e-05,1.72202246e-05,2.10851377e-05,2.39282737e-05
0.75,5.0860105e-07,6.35137519e-06,1.28824513e-05,1.8243754e-05,2.24056867e-05,2.54729053e-05
0.8,5.08969481e-07,6.5204624e-06,1.35009407e-05,1.92401246e-05,2.37018113e-05,2.6995855e-05
0.85,5.09324267e-07,6.65922709e-06,1.40898402e-05,2.02094053e-05,2.49735693e-05,2.849717e-05
0.9,5.09668931e-07,6.76872847e-06,1.46492294e-05,2.11516645e-05,2.62210185e-05,2.99768974e-05
0.95,5.10005864e-07,6.85086962e-06,1.51791883e-05,2.20669706e-05,2.74442164e-05,3.14350844e-05
1.0,5.10336742e-07,6.9088818e-06,1.56797974e-05,2.29553917e-05,2.86432203e-05,3.28717778e-05
1.05,5.10662777e-07,6.94749983e-06,1.61511378e-05,2.38169957e-05,2.98180874e-05,3.42870242e-05
1.1,5.10984868e-07,6.97224652e-06,1.65932923e-05,2.465185e-05,3.09688745e-05,3.56808703e-05
1.15,5.11303693e-07,6.98808684e-06,1.70063457e-05,2.5460022e-05,3.20956384e-05,3.70533626e-05
1.2,5.11619776e-07,6.99857675e-06,1.73903864e-05,2.62415788e-05,3.31984357e-05,3.84045474e-05
1.25,5.1193353e-07,7.00590773e-06,1.77455079e-05,2.69965871e-05,3.42773226e-05,3.97344707e-05
1.3,5.12245282e-07,7.01133972e-06,1.80718124e-05,2.77251135e-05,3.53323554e-05,4.10431787e-05
1.35,5.12555298e-07,7.01558857e-06,1.8369416e-05,2.84272241e-05,3.636359e-05,4.23307172e-05
1.4,5.12863795e-07,7.01906925e-06,1.86384575e-05,2.91029851e-05,3.73710821e-05,4.3597132e-05
1.45,5.13170952e-07,7.02203055e-06,1.88791137e-05,2.97524622e-05,3.83548872e-05,4.48424687e-05
1.5,5.13476918e-07,7.02462738e-06,1.90916265e-05,3.03757209e-05,3.93150608e-05,4.60667727e-05
1.55,5.13781822e-07,7.02695983e-06,1.92763489e-05,3.09728263e-05,4.02516578e-05,4.72700894e-05
1.6,5.1408577e-07,7.02909487e-06,1.9433825e-05,3.15438436e-05,4.11647331e-05,4.84524638e-05
1.65,5.14388854e-07,7.0310787e-06,1.95649198e-05,3.20888376e-05,4.20543415e-05,4.96139411e-05
1.7,5.14691154e-07,7.03294411e-06,1.96710073e-05,3.2607873e-05,4.29205374e-05,5.07545662e-05
1.75,5.1499274e-07,7.03471497e-06,1.97541834e-05,3.31010147e-05,4.3763375e-05,5.18743837e-05
1.8,5.15293672e-07,7.03640903e-06,1.9817381e-05,3.35683274e-05,4.45829082e-05,5.29734383e-05
1.85,5.15594002e-07,7.03803977e-06,1.98642131e-05,3.40098767e-05,4.53791907e-05,5.40517743e-05
1.9,5.15893779e-07,7.0396176e-06,1.98984946e-05,3.44257286e-05,4.6152276e-05,5.51094362e-05
1.95,5.16193044e-07,7.0411507e-06,1.99236762e-05,3.48159509e-05,4.69022172e-05,5.61464679e-05
2.0,5.16491836e-07,7.04264557e-06,1.99424962e-05,3.51806142e-05,4.76290673e-05,5.71629136e-05
2.05,5.16790189e-07,7.04410747e-06,1.99569343e-05,3.55197932e-05,4.83328787e-05,5.8158817e-05
2.1,5.17088136e-07,7.04554068e-06,1.99683461e-05,3.58335703e-05,4.90137037e-05,5.91342218e-05
2.15,5.17385707e-07,7.04694874e-06,1.99776385e-05,3.61220402e-05,4.96715942e-05,6.00891714e-05
2.2,5.17682933e-07,7.0483346e-06,1.99854168e-05,3.63853181e-05,5.03066016e-05,6.10237092e-05
2.25,5.17979844e-07,7.04970073e-06,1.99920892e-05,3.66235532e-05,5.09187772e-05,6.19378784e-05
2.3,5.18276472e-07,7.05104923e-06,1.99979356e-05,3.68369512e-05,5.15081715e-05,6.2831722e-05
2.35,5.18572855e-07,7.0523819e-06,2.0003152e-05,3.70258111e-05,5.20748348e-05,6.37052827e-05
2.4,5.18869031e-07,7.05370026e-06,2.00078781e-05,3.71905834e-05,5.26188167e-05,6.45586031e-05
2.45,5.19165049e-07,7.05500566e-06,2.00122159e-05,3.73319562e-05,5.31401665e-05,6.53917256e-05
2.5,5.19460965e-07,7.05629925e-06,2.00162411e-05,3.74509687e-05,5.36389326e-05,6.62046925e-05
2.55,5.19756849e-07,7.05758205e-06,2.00200109e-05,3.75491301e-05,5.41151631e-05,6.69975456e-05
2.6,5.20052785e-07,7.05885496e-06,2.00235692e-05,3.76284887e-05,5.45689054e-05,6.77703268e-05
2.65,5.20348876e-07,7.06011877e-06,2.00269504e-05,3.76915781e-05,5.50002063e-05,6.85230775e-05
2.7,5.20645246e-07,7.06137418e-06,2.00301816e-05,3.77412063e-05,5.54091123e-05,6.9255839e-05
2.75,5.2094205e-07,7.06262183e-06,2.00332845e-05,3.77801513e-05,5.57956695e-05,6.99686522e-05
2.8,5.21239471e-07,7.06386231e-06,2.00362768e-05,3.78108906e-05,5.61599246e-05,7.06615578e-05
2.85,5.21537731e-07,7.06509614e-06,2.00391729e-05,3.78354559e-05,5.65019251e-05,7.1334596e-05
2.9,5.21837093e-07,7.06632385e-06,2.00419846e-05,3.78554164e-05,5.68217212e-05,7.19878068e-05
2.95,5.22137871e-07,7.06754591e-06,2.00447221e-05,3.78719392e-05,5.71193681e-05,7.26212299e-05
3.0,5.22440432e-07,7.06876281e-06,2.00473937e-05,3.78858763e-05,5.73949301e-05,7.32349043e-05
3.05,5.22745205e-07,7.06997507e-06,2.00500064e-05,3.78978458e-05,5.76484876e-05,7.38288686e-05
3.1,5.23052689e-07,7.07118322e-06,2.00525665e-05,3.79082975e-05,5.78801482e-05,7.44031611e-05
3.15,5.23363456e-07,7.07238788e-06,2.0055079e-05,3.79175612e-05,5.80900654e-05,7.49578191e-05
3.2,5.23678164e-07,7.07358975e-06,2.00575485e-05,3.79258819e-05,5.8278467e-05,7.54928797e-05
3.25,5.23997561e-07,7.07478965e-06,2.0059979e-05,3.79334436e-05,5.84456984e-05,7.60083788e-05
3.3,5.24322491e-07,7.07598856e-06,2.00623739e-05,3.79403863e-05,5.8592283e-05,7.65043518e-05
3.35,5.24653907e-07,7.07718767e-06,2.00647362e-05,3.79468182e-05,5.87189972e-05,7.6980833e-05
3.4,5.24992874e-07,7.07838842e-06,2.00670685e-05,3.79528239e-05,5.88269459e-05,7.74378556e-05
3.45,5.25340578e-07,7.07959256e-06,2.00693733e-05,3.79584701e-05,5.89176099e-05,7.78754519e-05
3.5,5.25698334e-07,7.08080218e-06,2.00716528e-05,3.79638105e-05,5.89928273e-05,7.82936525e-05
3.55,5.26067594e-07,7.08201983e-06,2.00739087e-05,3.79688882e-05,5.90546897e-05,7.86924871e-05
3.6,5.2644995e-07,7.08324854e-06,2.0076143e-05,3.79737387e-05,5.91053713e-05,7.90719835e-05
3.65,5.26847149e-07,7.08449192e-06,2.00783571e-05,3.79783912e-05,5.91469474e-05,7.94321683e-05
3.7,5.27261089e-07,7.08575423e-06,2.00805528e-05,3.79828699e-05,5.91812589e-05,7.97730671e-05
3.75,5.27693835e-07,7.08704046e-06,2.00827315e-05,3.79871951e-05,5.92098469e-05,8.00947044e-05
3.8,5.28147619e-07,7.08835646e-06,2.00848948e-05,3.79913841e-05,5.92339494e-05,8.03971051e-05
3.85,5.28624847e-07,7.08970897e-06,2.00870442e-05,3.79954515e-05,5.92545341e-05,8.0680296e-05
3.9,5.29128107e-07,7.09110575e-06,2.00891816e-05,3.79994098e-05,5.92723468e-05,8.09443093e-05
3.95,5.29660168e-07,7.09255568e-06,2.00913088e-05,3.80032698e-05,5.92879583e-05,8.11891872e-05
4.0,5.30223989e-07,7.09406886e-06,2.00934281e-05,3.80070409e-05,5.93018057e-05,8.14149914e-05
4.05,5.30822723e-07,7.0956567e-06,2.00955421e-05,3.80107312e-05,5.93142249e-05,8.16218163e-05
4.1,5.31459717e-07,7.097332e-06,2.0097654e-05,3.80143479e-05,5.93254761e-05,8.18098106e-05
4.15,5.32138517e-07,7.09910912e-06,2.00997677e-05,3.80178973e-05,5.93357624e-05,8.19792082e-05
4.2,5.3286287e-07,7.101004e-06,2.01018876e-05,3.80213849e-05,5.93452438e-05,8.21303705e-05
4.25,5.33636726e-07,7.1030343e-06,2.01040193e-05,3.80248157e-05,5.93540474e-05,8.22638375e-05
4.3,5.3446424e-07,7.1052195e-06,2.01061694e-05,3.8028194e-05,5.93622755e-05,8.23803811e-05
4.35,5.35349773e-07,7.10758096e-06,2.01083459e-05,3.8031524e-05,5.93700108e-05,8.24810435e-05
4.4,5.36297891e-07,7.11014205e-06,2.01105582e-05,3.80348093e-05,5.93773208e-05,8.25671412e-05
4.45,5.37313367e-07,7.1129282e-06,2.01128176e-05,3.80380532e-05,5.93842615e-05,8.26402188e-05
4.5,5.38401178e-07,7.115967e-06,2.01151372e-05,3.80412589e-05,5.9390879e-05,8.27019555e-05
4.55,5.39566509e-07,7.11928827e-06,2.01175324e-05,3.80444296e-05,5.93972123e-05,8.27540473e-05
4.6,5.40814746e-07,7.12292414e-06,2.01200211e-05,3.80475683e-05,5.9403294e-05,8.27980971e-05
4.65,5.42151477e-07,7.12690909e-06,2.01226239e-05,3.80506782e-05,5.94091519e-05,8.28355379e-05
4.7,5.43582493e-07,7.13128003e-06,2.01253644e-05,3.80537626e-05,5.94148098e-05,8.28675956e-05
4.75,5.4511378e-07,7.13607637e-06,2.01282695e-05,3.80568253e-05,5.94202881e-05,8.28952864e-05
4.8,5.46751519e-07,7.14134001e-06,2.01313697e-05,3.80598706e-05,5.94256043e-05,8.29194346e-05
4.85,5.48502083e-07,7.14711544e-06,2.01346993e-05,3.80629033e-05,5.94307738e-05,8.29406998e-05
4.9,5.50372036e-07,7.15344975e-06,2.01382969e-05,3.80659295e-05,5.94358101e-05,8.2959607e-05
4.95,5.52368121e-07,7.16039264e-06,2.01422054e-05,3.80689561e-05,5.94407248e-05,8.29765726e-05
5.0,5.54497268e-07,7.16799648e-06,2.01464723e-05,3.80719916e-05,5.94455282e-05,8.2991928e-05
5.05,5.5676658e-07,7.17631628e-06,2.01511503e-05,3.80750461e-05,5.94502297e-05,8.30059379e-05
5.1,5.59183333e-07,7.18540973e-06,2.01562973e-05,3.80781318e-05,5.94548372e-05,8.30188146e-05
5.15,5.61754969e-07,7.1953372e-06,2.01619764e-05,3.80812633e-05,5.94593583e-05,8.30307297e-05
5.2,5.64489095e-07,7.20616173e-06,2.01682569e-05,3.80844581e-05,5.94637994e-05,8.3041823e-05
5.25,5.67393474e-07,7.21794899e-06,2.01752138e-05,3.80877366e-05,5.94681666e-05,8.30522088e-05
5.3,5.70476021e-07,7.23076734e-06,2.01829283e-05,3.80911231e-05,5.94724654e-05,8.30619816e-05
5.35,5.73744799e-07,7.24468771e-06,2.01914881e-05,3.8094646e-05,5.94767012e-05,8.30712198e-05
5.4,5.77208011e-07,7.25978365e-06,2.02009874e-05,3.8098338e-05,5.9480879e-05,8.30799891e-05
5.45,5.80873998e-07,7.27613129e-06,2.02115271e-05,3.81022372e-05,5.94850037e-05,8.30883448e-05
5.5,5.8475123e-07,7.29380924e-06,2.02232153e-05,3.8106387e-05,5.94890805e-05,8.30963338e-05
5.55,5.888483e-07,7.31289862e-06,2.02361669e-05,3.81108371e-05,5.94931147e-05,8.31039961e-05
5.6,5.93173923e-07,7.333483e-06,2.02505041e-05,3.81156438e-05,5.94971124e-05,8.31113659e-05
5.65,5.97736924e-07,7.35564831e-06,2.02663562e-05,3.81208706e-05,5.95010801e-05,8.31184729e-05
5.7,6.02546237e-07,7.37948283e-06,2.02838602e-05,3.81265887e-05,5.95050257e-05,8.31253426e-05
5.75,6.07610895e-07,7.4050771e-06,2.03031602e-05,3.81328774e-05,5.95089583e-05,8.31319973e-05
5.8,6.12940029e-07,7.4325239e-06,2.03244081e-05,3.8139825e-05,5.95128888e-05,8.31384565e-05
5.85,6.18542858e-07,7.46191814e-06,2.03477629e-05,3.8147529e-05,5.95168302e-05,8.31447375e-05
5.9,6.24428683e-07,7.49335683e-06,2.03733916e-05,3.81560967e-05,5.95207982e-05,8.31508553e-05
5.95,6.30606886e-07,7.52693899e-06,2.04014684e-05,3.81656457e-05,5.95248115e-05,8.31568235e-05
6.0,6.37086917e-07,7.56276559e-06,2.0432175e-05,3.81763043e-05,5.95288927e-05,8.31626539e-05
6.05,6.43878297e-07,7.60093947e-06,2.04657007e-05,3.81882119e-05,5.95330684e-05,8.31683573e-05
6.1,6.50990602e-07,7.64156526e-06,2.05022423e-05,3.82015198e-05,5.95373702e-05,8.31739434e-05
6.15,6.58433467e-07,7.68474934e-06,2.05420035e-05,3.82163911e-05,5.95418354e-05,8.31794211e-05
6.2,6.66216576e-07,7.73059971e-06,2.05851957e-05,3.82330012e-05,5.95465075e-05,8.31847984e-05
6.25,6.74349654e-07,7.77922593e-06,2.06320372e-05,3.82515385e-05,5.95514369e-05,8.3190083e-05
6.3,6.82842467e-07,7.83073909e-06,2.06827534e-05,3.8272204e-05,5.95566822e-05,8.31952821e-05
6.35,6.91704815e-07,7.88525164e-06,2.07375766e-05,3.82952123e-05,5.95623103e-05,8.3200403e-05
6.4,7.00946523e-07,7.94287738e-06,2.07967459e-05,3.83207913e-05,5.95683975e-05,8.32054529e-05
6.45,7.10577441e-07,8.00373137e-06,2.0860507e-05,3.83491828e-05,5.95750306e-05,8.32104393e-05
6.5,7.20607436e-07,8.06792982e-06,2.0929112e-05,3.83806424e-05,5.95823073e-05,8.32153705e-05
6.55,7.3104639e-07,8.13559003e-06,2.10028194e-05,3.84154395e-05,5.95903374e-05,8.32202558e-05
6.6,7.41904191e-07,8.20683031e-06,2.10818937e-05,3.84538579e-05,5.95992433e-05,8.32251058e-05
