vds,vb1,vb2,vb3,vb4,vb5,vb6
0.0,-0.0,-0.0,-0.0,-0.0,-0.0,-0.0
0.05,2.87043847e-05,0.000117492612,0.000183088526,0.000231622819,0.000265648618,0.000287855264
0.1,4.9216097e-05,0.000224881207,0.000355196827,0.000452091456,0.000520520961,0.000565655286
0.15,6.22787585e-05,0.000322591672,0.000516773497,0.000661829966,0.000764990102,0.000833713395
0.2,6.95540478e-05,0.000411027055,0.000668242666,0.000861240896,0.000999411923,0.00109232995
0.25,7.37286308e-05,0.000490569454,0.000810005259,0.00105070632,0.0012241259,0.00134179289
0.3,7.66939225e-05,0.000561582282,0.000942440177,0.00123058877,0.00143945577,0.00158237822
0.35,7.91302153e-05,0.000624413183,0.00106590552,0.00140123208,0.00164571018,0.00181435042
0.4,8.12653172e-05,0.000679398075,0.00118073982,0.00156296237,0.00184318326,0.00203796289
0.45,8.3198778e-05,0.000726867802,0.00128726326,0.00171608894,0.00203215531,0.0022534583
0.5,8.49851496e-05,0.000767161998,0.00138577867,0.00186090533,0.00221289342,0.00246106907
0.55,8.6658654e-05,0.000800664103,0.00147657199,0.00199769029,0.00238565222,0.00266101778
0.6,8.82425743e-05,0.000827887896,0.00155991184,0.00212670869,0.00255067456,0.00285351759
0.65,8.97536149e-05,0.000849615457,0.00163604735,0.00224821231,0.00270819228,0.00303877279
0.7,9.1204222e-05,0.000866920758,0.00170520297,0.00236244023,0.00285842689,0.00321697921
0.75,9.26039384e-05,0.000880930643,0.00176756845,0.00246961888,0.00300159021,0.00338832478
0.8,9.39602501e-05,0.000892566671,0.00182328278,0.00256996119,0.00313788491,0.00355298994
0.85,9.52791403e-05,0.000902484025,0.00187241985,0.00266366454,0.0032675049,0.00371114817
0.9,9.65654669e-05,0.000911127517,0.00191501149,0.0027509066,0.00339063553,0.00386296633
0.95,9.78232283e-05,0.000918800167,0.00195117693,0.00283183774,0.00350745335,0.00400860512
1.0,9.90557536e-05,0.000925713116,0.00198134283,0.00290656807,0.00361812554,0.00414821929
1.05,0.000100265844,0.000932017589,0.00200632444,0.00297514721,0.00372280844,0.00428195789
1.1,0.000101455877,0.000937824855,0.00202713008,0.00303753915,0.00382164502,0.00440996428
1.15,0.00010262789,0.000943218827,0.00204470337,0.00309361005,0.00391476043,0.00453237604
1.2,0.000103783637,0.000948264177,0.00205980096,0.00314317762,0.00400225463,0.00464932454
1.25,0.000104924642,0.000953011713,0.00207298849,0.00318617523,0.00408419055,0.00476093416
1.3,0.000106052237,0.000957502032,0.00208467964,0.00322287041,0.00416057637,0.00486732089
1.35,0.000107167589,0.00096176805,0.00209517758,0.00325393329,0.00423134222,0.00496859008
1.4,0.000108271732,0.000965836815,0.00210470733,0.00328027268,0.00429632027,0.00506483278
1.45,0.000109365579,0.000969730806,0.00211343873,0.00330280647,0.00435525481,0.00515611998
1.5,0.000110449945,0.000973468904,0.0021215022,0.00332232432,0.00440788731,0.00524249371
1.55,0.00011152556,0.000977067113,0.0021289996,0.00333945267,0.00445412938,0.00532395378
1.6,0.000112593077,0.000980539118,0.00213601177,0.00335467162,0.00449422919,0.00540043989
1.65,0.000113653084,0.000983896704,0.00214260377,0.0033683457,0.00452878536,0.00547181184
1.7,0.000114706115,0.000987150094,0.00214882865,0.00338075281,0.00455859811,0.0055378398
1.75,0.000115752652,0.000990308213,0.00215473018,0.00339210687,0.00458448871,0.00559823025
1.8,0.000116793132,0.000993378894,0.00216034488,0.00340257473,0.00460718718,0.00565271703
1.85,0.000117827956,0.000996369052,0.00216570348,0.00341228816,0.00462729474,0.00570120802
1.9,0.000118857489,0.000999284819,0.00217083211,0.0034213527,0.00464528879,0.00574390407
1.95,0.000119882066,0.00100213166,0.00217575312,0.00342985387,0.00466154331,0.00578129773
2.0,0.000120901993,0.00100491446,0.00218048579,0.00343786177,0.00467635095,0.00581405874
2.05,0.000121917554,0.00100763762,0.00218504687,0.00344543453,0.004689942,0.00584289566
2.1,0.000122929011,0.00101030508,0.00218945099,0.00345262078,0.00470249932,0.00586846187
2.15,0.000123936604,0.00101292045,0.00219371101,0.00345946158,0.00471416958,0.00589131562
2.2,0.000124940561,0.00101548695,0.00219783826,0.0034659919,0.00472507171,0.00591191523
2.25,0.000125941089,0.00101800755,0.00220184283,0.00347224175,0.00473530311,0.00593063023
2.3,0.000126938387,0.00102048496,0.00220573368,0.00347823702,0.0047449444,0.00594775697
2.35,0.000127932638,0.00102292165,0.00220951884,0.00348400025,0.00475406289,0.00596353346
2.4,0.00012892402,0.00102531988,0.00221320555,0.00348955114,0.0047627153,0.00597815198
2.45,0.000129912701,0.00102768175,0.00221680029,0.00349490702,0.00477094983,0.00599176899
2.5,0.000130898841,0.00103000918,0.00222030896,0.00350008318,0.00477880769,0.00600451293
2.55,0.000131882598,0.00103230397,0.0022237369,0.00350509323,0.00478632442,0.00601649009
2.6,0.000132864129,0.00103456777,0.00222708899,0.00350994929,0.00479353083,0.00602778925
2.65,0.000133843588,0.00103680214,0.00223036966,0.0035146622,0.00480045382,0.00603848513
2.7,0.000134821131,0.00103900854,0.00223358298,0.00351924173,0.00480711697,0.00604864109
2.75,0.000135796919,0.00104118831,0.0022367327,0.00352369668,0.0048135411,0.00605831129
2.8,0.000136771118,0.00104334278,0.00223982226,0.003528035,0.00481974462,0.00606754235
2.85,0.000137743903,0.00104547317,0.00224285484,0.00353226393,0.00482574394,0.00607637458
2.9,0.000138715458,0.00104758067,0.00224583339,0.00353639006,0.00483155373,0.00608484314
2.95,0.000139685983,0.00104966645,0.00224876068,0.0035404194,0.00483718713,0.0060929788
3.0,0.000140655691,0.00105173165,0.00225163928,0.00354435746,0.004842656,0.00610080865
3.05,0.000141624817,0.00105377738,0.00225447161,0.0035482093,0.00484797103,0.00610835665
3.1,0.000142593615,0.0010558048,0.00225725997,0.00355197961,0.00485314193,0.0061156441
3.15,0.000143562364,0.00105781506,0.00226000655,0.0035556727,0.0048581775,0.00612269
3.2,0.00014453137,0.00105980935,0.00226271349,0.00355929258,0.00486308581,0.00612951137
3.25,0.000145500972,0.00106178891,0.00226538282,0.00356284299,0.00486787421,0.00613612352
3.3,0.000146471541,0.00106375505,0.00226801659,0.00356632746,0.00487254945,0.00614254025
3.35,0.000147443484,0.00106570917,0.00227061683,0.0035697493,0.00487711775,0.00614877407
3.4,0.000148417249,0.00106765275,0.00227318558,0.00357311166,0.00488158484,0.00615483633
3.45,0.000149393329,0.00106958739,0.00227572494,0.00357641759,0.00488595605,0.00616073736
3.5,0.000150372261,0.00107151484,0.00227823708,0.00357967,0.00489023634,0.00616648662
3.55,0.000151354633,0.00107343699,0.0022807243,0.0035828718,0.00489443032,0.00617209276
3.6,0.000152341086,0.00107535589,0.00228318902,0.00358602584,0.00489854238,0.00617756372
3.65,0.000153332318,0.00107727379,0.00228563384,0.00358913501,0.00490257663,0.00618290685
3.7,0.000154329083,0.00107919313,0.00228806157,0.00359220227,0.00490653704,0.00618812891
3.75,0.000155332201,0.0010811166,0.00229047524,0.00359523066,0.00491042743,0.00619323622
3.8,0.000156342556,0.00108304709,0.00229287818,0.0035982234,0.00491425152,0.00619823463
3.85,0.000157361098,0.0010849878,0.00229527401,0.00360118388,0.00491801301,0.00620312967
3.9,0.000158388851,0.00108694214,0.00229766672,0.00360411573,0.00492171559,0.00620792653
3.95,0.000159426912,0.00108891388,0.00230006066,0.00360702291,0.00492536302,0.00621263015
4.0,0.000160476451,0.00109090704,0.00230246062,0.00360990968,0.00492895919,0.00621724528
4.05,0.000161538721,0.001092926,0.00230487181,0.00361278073,0.00493250815,0.00622177653
4.1,0.000162615052,0.00109497547,0.00230729998,0.00361564119,0.00493601419,0.00622622841
4.15,0.00016370686,0.00109706049,0.00230975136,0.00361849669,0.0049394819,0.00623060542
4.2,0.000164815646,0.0010991865,0.00231223277,0.00362135343,0.00494291624,0.00623491209
4.25,0.000165942995,0.00110135929,0.00231475162,0.00362421824,0.0049463226,0.00623915306
4.3,0.000167090583,0.00110358506,0.00231731594,0.00362709862,0.00494970687,0.00624333313
4.35,0.000168260179,0.0011058704,0.00231993442,0.00363000277,0.00495307553,0.00624745737
4.4,0.000169453638,0.00110822231,0.00232261644,0.00363293972,0.0049564357,0.00625153116
4.45,0.000170672914,0.0011106482,0.00232537209,0.0036359193,0.00495979522,0.00625556029
4.5,0.000171920053,0.00111315593,0.0023282122,0.00363895227,0.00496316274,0.00625955103
4.55,0.000173197196,0.00111575378,0.00233114839,0.00364205031,0.00496654779,0.00626351022
4.6,0.000174506581,0.00111845045,0.00233419304,0.00364522608,0.00496996084,0.00626744538
4.65,0.000175850544,0.00112125512,0.00233735935,0.00364849331,0.00497341341,0.00627136476
4.7,0.000177231519,0.0011241774,0.00234066137,0.0036518668,0.00497691809,0.00627527749
4.75,0.000178652035,0.00112722734,0.00234411396,0.00365536246,0.00498048867,0.00627919361
4.8,0.000180114725,0.00113041545,0.00234773286,0.0036589974,0.00498414017,0.00628312421
4.85,0.000181622316,0.00113375269,0.00235153469,0.00366278991,0.00498788894,0.00628708152
4.9,0.000183177637,0.00113725049,0.00235553694,0.00366675951,0.00499175268,0.00629107898
4.95,0.000184783615,0.0011409207,0.00235975799,0.00367092702,0.00499575057,0.00629513135
5.0,0.000186443274,0.00114477565,0.00236421712,0.00367531452,0.00499990325,0.00629925483
5.05,0.000188159739,0.00114882808,0.00236893453,0.00367994542,0.00500423295,0.0063034671
5.1,0.000189936232,0.00115309122,0.00237393128,0.00368484448,0.00500876349,0.00630778745
5.15,0.000191776072,0.00115757869,0.00237922937,0.0036900378,0.00501352036,0.00631223683
5.2,0.000193682676,0.00116230457,0.00238485168,0.00369555286,0.00501853074,0.00631683796
5.25,0.000195659555,0.00116728337,0.00239082199,0.00370141852,0.00502382355,0.00632161542
5.3,0.000197710319,0.00117253001,0.00239716499,0.00370766502,0.00502942951,0.00632659566
5.35,0.000199838668,0.00117805981,0.00240390621,0.00371432401,0.00503538111,0.00633180715
5.4,0.000202048399,0.00118388853,0.00241107209,0.00372142851,0.00504171269,0.00633728038
5.45,0.000204343399,0.0011900323,0.00241868992,0.00372901294,0.00504846045,0.00634304796
5.5,0.000206727649,0.00119650765,0.00242678782,0.00373711312,0.00505566244,0.00634914466
5.55,0.000209205217,0.00120333149,0.00243539478,0.00374576621,0.0050633586,0.00635560744
5.6,0.000211780262,0.00121052108,0.00244454058,0.00375501077,0.00507159077,0.00636247553
5.65,0.000214457028,0.00121809406,0.00245425582,0.00376488668,0.00508040267,0.00636979044
5.7,0.000217239849,0.00122606843,0.00246457187,0.00377543519,0.00508983991,0.00637759599
5.75,0.000220133138,0.00123446249,0.00247552088,0.00378669884,0.00509994999,0.00638593834
5.8,0.000223141397,0.00124329489,0.00248713574,0.00379872145,0.00511078228,0.00639486604
5.85,0.000226269205,0.00125258461,0.00249945006,0.00381154816,0.00512238802,0.00640442998
5.9,0.000229521222,0.00126235092,0.00251249817,0.00382522529,0.00513482029,0.00641468345
5.95,0.000232902188,0.00127261336,0.00252631505,0.00383980043,0.00514813398,0.00642568213
6.0,0.000236416918,0.00128339179,0.00254093638,0.00385532234,0.00516238579,0.00643748406
6.05,0.000240070302,0.00129470632,0.00255639843,0.00387184091,0.0051776342,0.00645014969
6.1,0.000243867303,0.00130657732,0.00257273812,0.00388940719,0.00519393941,0.00646374178
6.15,0.000247812957,0.0013190254,0.00258999292,0.00390807331,0.00521136334,0.00647832547
6.2,0.000251912368,0.0013320714,0.00260820088,0.00392789244,0.00522996956,0.00649396821
6.25,0.000256170709,0.00134573641,0.00262740058,0.00394891878,0.0052498233,0.00651073972
6.3,0.000260593219,0.00136004168,0.00264763111,0.0039712075,0.00527099135,0.006528712
6.35,0.0002651852,0.0013750087,0.00266893205,0.00399481474,0.00529354205,0.00654795925
6.4,0.000269952019,0.00139065912,0.00269134341,0.00401979751,0.00531754524,0.00656855787
6.45,0.000274899101,0.00140701478,0.00271490567,0.00404621371,0.00534307222,0.00659058636
6.5,0.000280031931,0.00142409765,0.00273965968,0.00407412205,0.00537019568,0.00661412535
6.55,0.000285356054,0.0014419299,0.00276564669,0.00410358202,0.00539898967,0.00663925748
6.6,0.000290877065,0.00146053378,0.00279290831,0.00413465387,0.00542952952,0.00666606738
