vds,vb1,vb2,vb3,vb4,vb5,vb6
0.0,-0.0,-0.0,-0.0,-0.0,-0.0,-0.0
0.05,1.46117155e-06,6.67117106e-06,1.07307915e-05,1.3820117e-05,1.60534856e-05,1.75728976e-05
0.1,2.5216336e-06,1.28594364e-05,2.09513734e-05,2.7130006e-05,3.16177041e-05,3.46905263e-05
0.15,3.20502009e-06,1.85771782e-05,3.06746813e-05,3.99418398e-05,4.67033711e-05,5.13619201e-05
0.2,3.57077837e-06,2.38363788e-05,3.99132156e-05,5.22674055e-05,6.13208904e-05,6.75958746e-05
0.25,3.74109716e-06,2.86486448e-05,4.86790574e-05,6.41181176e-05,7.54803645e-05,8.34009548e-05
0.3,3.83167794e-06,3.30252375e-05,5.69838838e-05,7.55050311e-05,8.9191604e-05,9.87855016e-05
0.35,3.89262576e-06,3.69771118e-05,6.48389822e-05,8.64388534e-05,0.000102464136,0.000113757638
0.4,3.93985171e-06,4.05149745e-05,7.22552646e-05,9.69299556e-05,0.000115307215,0.000128325276
0.45,3.97916166e-06,4.36493795e-05,7.92432802e-05,0.000106988384,0.000127729827,0.00014249612
0.5,4.01322539e-06,4.63909115e-05,8.58132277e-05,0.00011662387,0.000139740701,0.000156277676
0.55,4.04350712e-06,4.87505746e-05,9.1974965e-05,0.000125845843,0.000151348316,0.000169677253
0.6,4.07091056e-06,5.07406989e-05,9.77380157e-05,0.000134663438,0.000162560906,0.00018270197
0.65,4.0960397e-06,5.23771029e-05,0.000103111571,0.000143085507,0.000173386475,0.000195358763
0.7,4.11932152e-06,5.36837242e-05,0.000108104479,0.00015112063,0.000183832797,0.000207654389
0.75,4.14107059e-06,5.46993177e-05,0.000112725227,0.000158777117,0.000193907427,0.000219595429
0.8,4.16152614e-06,5.54791768e-05,0.000116981892,0.000166063019,0.000203617712,0.000231188297
0.85,4.18087476e-06,5.60841214e-05,0.000120882062,0.000172986125,0.000212970789,0.000242439246
0.9,4.19926501e-06,5.65657174e-05,0.000124432697,0.000179553963,0.000221973602,0.000253354368
0.95,4.2168172e-06,5.69608263e-05,0.000127639922,0.000185773791,0.0002306329,0.000263939605
1.0,4.23363024e-06,5.72939757e-05,0.000130508795,0.000191652575,0.000238955242,0.000274200749
1.05,4.24978642e-06,5.75813505e-05,0.000133043283,0.000197196958,0.000246947006,0.000284143451
1.1,4.26535502e-06,5.78338511e-05,0.000135247228,0.000202413202,0.000254614383,0.000293773223
1.15,4.28039488e-06,5.80590403e-05,0.000137127789,0.000207307094,0.000261963378,0.000303095443
1.2,4.29495645e-06,5.82623279e-05,0.000138701891,0.0002118838,0.000268999806,0.000312115357
1.25,4.30908328e-06,5.84476949e-05,0.000140001507,0.000216147634,0.000275729279,0.000320838082
1.3,4.32281326e-06,5.8618145e-05,0.000141071009,0.000220101705,0.00028215719,0.000329268609
1.35,4.33617954e-06,5.87759953e-05,0.000141957566,0.000223747427,0.000288288681,0.000337411806
1.4,4.3492113e-06,5.89230679e-05,0.000142702718,0.000227083938,0.000294128604,0.000345272409
1.45,4.36193438e-06,5.906082e-05,0.000143339224,0.000230107754,0.000299681449,0.000352855031
1.5,4.37437173e-06,5.91904343e-05,0.000143891596,0.000232813503,0.000304951243,0.000360164146
1.55,4.38654386e-06,5.93128837e-05,0.000144377869,0.000235197158,0.000309941397,0.00036720409
1.6,4.39846916e-06,5.94289771e-05,0.000144811341,0.000237262309,0.000314654476,0.00037397904
1.65,4.41016418e-06,5.95393949e-05,0.000145201929,0.000239026508,0.000319091863,0.000380493002
1.7,4.42164387e-06,5.96447141e-05,0.000145557145,0.000240522131,0.000323253286,0.000386749778
1.75,4.4329218e-06,5.97454286e-05,0.000145882772,0.000241790288,0.000327136221,0.000392752927
1.8,4.4440103e-06,5.9841964e-05,0.000146183332,0.000242872632,0.000330735284,0.000398505704
1.85,4.45492061e-06,5.99346896e-05,0.000146462417,0.000243805893,0.00033404203,0.000404010974
1.9,4.46566301e-06,6.00239284e-05,0.000146722917,0.000244619999,0.000337046001,0.000409271091
1.95,4.47624693e-06,6.01099639e-05,0.00014696719,0.000245338398,0.000339738104,0.000414287708
2.0,4.48668106e-06,6.01930464e-05,0.000147197181,0.000245979179,0.000342116337,0.000419061526
2.05,4.4969734e-06,6.02733983e-05,0.00014741451,0.000246556281,0.000344191312,0.000423591932
2.1,4.50713136e-06,6.03512177e-05,0.000147620543,0.000247080504,0.000345987565,0.000427876518
2.15,4.5171618e-06,6.0426682e-05,0.000147816437,0.000247560302,0.000347539422,0.000431910523
2.2,4.52707113e-06,6.04999507e-05,0.000148003184,0.000248002365,0.000348884422,0.000435686316
2.25,4.53686534e-06,6.05711676e-05,0.000148181637,0.000248412049,0.000350058006,0.000439193315
2.3,4.54655006e-06,6.0640463e-05,0.000148352537,0.000248793694,0.000351090804,0.000442418995
2.35,4.55613062e-06,6.07079552e-05,0.000148516532,0.000249150851,0.000352008018,0.000445351739
2.4,4.56561208e-06,6.07737517e-05,0.000148674191,0.000249486461,0.000352829867,0.000447985485
2.45,4.57499931e-06,6.08379512e-05,0.000148826013,0.000249802978,0.000353572424,0.000450324446
2.5,4.58429703e-06,6.09006437e-05,0.000148972444,0.000250102469,0.000354248452,0.000452385068
2.55,4.59350984e-06,6.09619123e-05,0.000149113879,0.000250386693,0.000354868136,0.000454193878
2.6,4.6026423e-06,6.10218334e-05,0.000149250674,0.000250657153,0.000355439657,0.000455782687
2.65,4.611699e-06,6.10804779e-05,0.000149383146,0.000250915146,0.000355969648,0.000457183815
2.7,4.62068457e-06,6.11379114e-05,0.000149511581,0.000251161796,0.000356463534,0.000458426937
2.75,4.62960378e-06,6.11941955e-05,0.000149636239,0.000251398085,0.00035692579,0.000459537688
2.8,4.63846159e-06,6.12493877e-05,0.000149757356,0.000251624873,0.000357360142,0.000460537457
2.85,4.64726323e-06,6.13035425e-05,0.000149875145,0.00025184292,0.00035776972,0.000461443772
2.9,4.65601424e-06,6.13567117e-05,0.000149989802,0.0002520529,0.000358157172,0.000462270897
2.95,4.66472055e-06,6.14089451e-05,0.000150101506,0.000252255411,0.000358524755,0.000463030427
3.0,4.67338859e-06,6.1460291e-05,0.000150210422,0.000252450989,0.000358874407,0.000463731824
3.05,4.68202529e-06,6.15107968e-05,0.000150316702,0.000252640115,0.000359207802,0.000464382848
3.1,4.69063824e-06,6.15605098e-05,0.000150420485,0.00025282322,0.000359526396,0.000464989906
3.15,4.6992357e-06,6.16094776e-05,0.000150521903,0.000253000696,0.000359831461,0.000465558329
3.2,4.70782672e-06,6.16577489e-05,0.000150621079,0.000253172899,0.000360124117,0.000466092581
3.25,4.71642118e-06,6.17053742e-05,0.000150718126,0.000253340149,0.000360405349,0.000466596432
3.3,4.72502992e-06,6.17524065e-05,0.000150813155,0.000253502742,0.000360676035,0.000467073083
3.35,4.73366478e-06,6.17989023e-05,0.00015090627,0.000253660946,0.000360936955,0.000467525277
3.4,4.74233868e-06,6.18449222e-05,0.000150997572,0.00025381501,0.000361188807,0.000467955372
3.45,4.75106571e-06,6.18905316e-05,0.00015108716,0.000253965161,0.000361432219,0.000468365412
3.5,4.7598612e-06,6.1935802e-05,0.000151175132,0.00025411161,0.000361667754,0.000468757179
3.55,4.76874179e-06,6.19808115e-05,0.000151261588,0.000254254554,0.000361895924,0.000469132232
3.6,4.7777255e-06,6.20256462e-05,0.000151346629,0.000254394177,0.000362117193,0.000469491944
3.65,4.7868318e-06,6.20704003e-05,0.00015143036,0.000254530651,0.000362331982,0.000469837529
3.7,4.79608168e-06,6.21151781e-05,0.000151512893,0.000254664141,0.000362540676,0.000470170065
3.75,4.8054977e-06,6.21600942e-05,0.000151594346,0.000254794805,0.000362743626,0.000470490513
3.8,4.81510405e-06,6.22052746e-05,0.000151674846,0.000254922796,0.000362941159,0.000470799735
3.85,4.82492662e-06,6.2250858e-05,0.000151754532,0.000255048264,0.000363133571,0.000471098503
3.9,4.83499303e-06,6.22969962e-05,0.000151833556,0.00025517136,0.00036332114,0.000471387516
3.95,4.84533269e-06,6.23438555e-05,0.000151912086,0.000255292237,0.000363504124,0.000471667404
4.0,4.85597683e-06,6.23916172e-05,0.000151990306,0.00025541105,0.000363682764,0.000471938741
4.05,4.86695855e-06,6.2440479e-05,0.000152068421,0.000255527965,0.000363857288,0.000472202047
4.1,4.87831285e-06,6.24906553e-05,0.000152146657,0.000255643155,0.000364027913,0.000472457798
4.15,4.89007666e-06,6.25423783e-05,0.000152225265,0.000255756807,0.000364194848,0.000472706432
4.2,4.90228884e-06,6.25958986e-05,0.000152304522,0.000255869124,0.000364358297,0.000472948349
4.25,4.91499024e-06,6.26514861e-05,0.000152384734,0.000255980328,0.000364518461,0.000473183918
4.3,4.9282237e-06,6.27094309e-05,0.000152466239,0.000256090664,0.000364675541,0.000473413483
4.35,4.94203406e-06,6.27700431e-05,0.000152549406,0.000256200402,0.000364829745,0.000473637364
4.4,4.95646814e-06,6.28336544e-05,0.000152634641,0.000256309842,0.000364981285,0.000473855859
4.45,4.97157479e-06,6.29006179e-05,0.000152722388,0.000256419318,0.000365130386,0.000474069251
4.5,4.98740486e-06,6.29713089e-05,0.00015281313,0.000256529199,0.000365277289,0.000474277811
4.55,5.00401121e-06,6.30461253e-05,0.000152907392,0.000256639898,0.00036542225,0.000474481797
4.6,5.02144868e-06,6.31254877e-05,0.000153005743,0.00025675187,0.000365565555,0.000474681463
4.65,5.03977409e-06,6.320984e-05,0.000153108797,0.00025686562,0.000365707512,0.00047487706
4.7,5.05904623e-06,6.32996496e-05,0.000153217215,0.000256981703,0.000365848467,0.00047506884
4.75,5.07932582e-06,6.33954074e-05,0.000153331707,0.000257100733,0.000365988799,0.00047525706
4.8,5.10067552e-06,6.3497628e-05,0.000153453033,0.000257223381,0.000366128935,0.000475441989
4.85,5.12315986e-06,6.36068499e-05,0.000153582007,0.000257350382,0.000366269347,0.000475623908
4.9,5.14684525e-06,6.37236353e-05,0.000153719491,0.00025748254,0.00036641056,0.00047580312
4.95,5.17179992e-06,6.38485701e-05,0.000153866404,0.000257620725,0.00036655316,0.000475979951
5.0,5.19809392e-06,6.39822641e-05,0.00015402372,0.000257765884,0.000366697797,0.00047615476
5.05,5.22579903e-06,6.41253504e-05,0.000154192467,0.000257919037,0.000366845189,0.00047632794
5.1,5.25498878e-06,6.42784856e-05,0.000154373731,0.000258081286,0.00036699613,0.000476499928
5.15,5.28573836e-06,6.44423491e-05,0.000154568653,0.000258253813,0.000367151496,0.00047667121
5.2,5.31812462e-06,6.46176434e-05,0.000154778431,0.000258437885,0.000367312245,0.000476842327
5.25,5.35222598e-06,6.48050933e-05,0.000155004322,0.000258634855,0.00036747943,0.000477013883
5.3,5.38812243e-06,6.50054456e-05,0.00015524764,0.000258846165,0.000367654197,0.000477186551
5.35,5.42589544e-06,6.52194691e-05,0.000155509755,0.000259073347,0.000367837791,0.00047736108
5.4,5.46562796e-06,6.54479534e-05,0.000155792094,0.000259318025,0.000368031566,0.000477538302
5.45,5.50740432e-06,6.56917093e-05,0.000156096144,0.000259581916,0.000368236981,0.000477719139
5.5,5.55131019e-06,6.59515675e-05,0.000156423445,0.000259866831,0.000368455611,0.000477904611
5.55,5.59743259e-06,6.62283786e-05,0.000156775594,0.000260174676,0.000368689146,0.000478095842
5.6,5.64585973e-06,6.65230123e-05,0.000157154244,0.000260507454,0.000368939398,0.000478294067
5.65,5.69668106e-06,6.68363569e-05,0.000157561101,0.000260867262,0.000369208301,0.000478500637
5.7,5.74998716e-06,6.71693186e-05,0.000157997927,0.000261256295,0.000369497917,0.000478717028
5.75,5.80586968e-06,6.7522821e-05,0.000158466535,0.000261676842,0.000369810435,0.000478944847
5.8,5.86442135e-06,6.78978044e-05,0.000158968788,0.000262131291,0.000370148177,0.000479185835
5.85,5.92573584e-06,6.8295225e-05,0.000159506603,0.000262622121,0.000370513596,0.000479441876
5.9,5.98990779e-06,6.87160546e-05,0.000160081945,0.00026315191,0.00037090928,0.000479715
5.95,6.05703269e-06,6.91612794e-05,0.000160696825,0.000263723326,0.000371337954,0.000480007389
6.0,6.12720686e-06,6.96318998e-05,0.000161353304,0.000264339132,0.000371802476,0.000480321381
6.05,6.20052741e-06,7.01289295e-05,0.000162053485,0.000265002181,0.000372305845,0.000480659474
6.1,6.27709216e-06,7.06533946e-05,0.000162799516,0.000265715416,0.000372851194,0.000481024331
6.15,6.35699958e-06,7.12063333e-05,0.00016359359,0.000266481867,0.000373441793,0.000481418783
6.2,6.4403488e-06,7.1788795e-05,0.000164437935,0.000267304653,0.00037408105,0.000481845828
6.25,6.52723949e-06,7.24018393e-05,0.000165334824,0.000268186976,0.000374772506,0.00048230864
6.3,6.61777184e-06,7.30465359e-05,0.000166286564,0.000269132119,0.00037551984,0.000482810566
6.35,6.71204651e-06,7.37239633e-05,0.000167295498,0.000270143447,0.00037632686,0.000483355129
6.4,6.81016459e-06,7.44352087e-05,0.000168364004,0.000271224404,0.000377197509,0.000483946029
6.45,6.91222755e-06,7.51813666e-05,0.000169494493,0.000272378507,0.000378135858,0.000484587146
6.5,7.01833715e-06,7.59635388e-05,0.000170689405,0.000273609348,0.000379146106,0.000485282535
6.55,7.12859547e-06,7.67828332e-05,0.000171951211,0.000274920588,0.000380232577,0.000486036431
6.6,7.24310482e-06,7.76403635e-05,0.000173282408,0.000276315958,0.000381399718,0.000486853245
