vds,vb1,vb2,vb3,vb4,vb5,vb6
0.0,-0.0,-0.0,-0.0,-0.0,-0.0,-0.0
0.05,1.44874247e-05,5.8801309e-05,9.15611623e-05,0.000115826526,0.000132871326,0.000144031069
0.1,2.4881057e-05,0.000112573235,0.000177662138,0.00022610765,0.000260384035,0.000283059765
0.15,3.1542367e-05,0.000161525591,0.000258523895,0.000331052317,0.000382722077,0.000417240732
0.2,3.52771747e-05,0.000205857055,0.000334355462,0.000430858966,0.000500061,0.000546722256
0.25,3.74167427e-05,0.000245756083,0.000405354522,0.000525716022,0.000612568314,0.000671646541
0.3,3.89284423e-05,0.000281402021,0.000471707987,0.000615802334,0.000720403824,0.000792149929
0.35,4.01670325e-05,0.000312966533,0.000533592579,0.000701287598,0.000823719919,0.000908363111
0.4,4.12510628e-05,0.00034061561,0.000591175445,0.000782332799,0.000922661869,0.00102041132
0.45,4.22319351e-05,0.000364512843,0.000644614756,0.000859090681,0.00101736813,0.00112841452
0.5,4.31376703e-05,0.000384826174,0.0006940602,0.000931706239,0.00110797068,0.00123248763
0.55,4.39857965e-05,0.000401744679,0.000739653265,0.00100031721,0.00119459534,0.0013327407
0.6,4.47882198e-05,0.00041551982,0.000781527067,0.00106505453,0.00127736216,0.00142927914
0.65,4.5553474e-05,0.000426532936,0.000819805386,0.00112604273,0.00135638574,0.00152220401
0.7,4.62879133e-05,0.000435312039,0.000854600304,0.00118340017,0.00143177561,0.00161161216
0.75,4.69964076e-05,0.000442419108,0.000886007527,0.00123723907,0.00150363658,0.00169759657
0.8,4.76827756e-05,0.000448319168,0.000914098826,0.00128766514,0.00157206893,0.00178024652
0.85,4.83500689e-05,0.000453344945,0.000938914611,0.00133477671,0.00163716871,0.00185964786
0.9,4.90007645e-05,0.000457722904,0.000960472624,0.00137866275,0.00169902778,0.0019358832
0.95,4.96369009e-05,0.00046160741,0.000978825932,0.00141939942,0.00175773377,0.00200903212
1.0,5.02601751e-05,0.000465106,0.00099417002,0.00145704406,0.0018133698,0.0020791713
1.05,5.08720148e-05,0.000468295657,0.00100689375,0.00149162564,0.00186601385,0.00214637463
1.1,5.14736319e-05,0.000471232993,0.00101749323,0.00152313251,0.00191573759,0.00221071326
1.15,5.20660639e-05,0.000473960675,0.00102644239,0.00155150483,0.00196260432,0.00227225553
1.2,5.26502053e-05,0.000476511572,0.00103412565,0.00157665363,0.00200666562,0.00233106682
1.25,5.32268327e-05,0.000478911496,0.00104083205,0.00159853457,0.00204795586,0.00238720918
1.3,5.37966241e-05,0.00048118106,0.00104677351,0.00161725658,0.00208648391,0.00244074072
1.35,5.43601751e-05,0.000483336974,0.0010521054,0.00163312936,0.00212222199,0.00249171453
1.4,5.49180112e-05,0.000485392963,0.00105694305,0.00164659417,0.00215509505,0.00254017706
1.45,5.54705985e-05,0.000487360431,0.00106137344,0.00165810954,0.0021849824,0.00258616547
1.5,5.60183521e-05,0.000489248954,0.00106546334,0.00166807636,0.00221175285,0.0026297035
1.55,5.65616433e-05,0.000491066647,0.00106926485,0.00167681546,0.00223534481,0.00267079539
1.6,5.71008051e-05,0.000492820446,0.00107281929,0.00168457374,0.00225585347,0.00270941738
1.65,5.76361376e-05,0.000494516327,0.00107615988,0.00169153898,0.0022735518,0.00274550789
1.7,5.81679118e-05,0.00049615947,0.00107931371,0.00169785439,0.00228882635,0.00277896122
1.75,5.86963737e-05,0.000497754395,0.00108230311,0.00170363019,0.00230208655,0.0028096361
1.8,5.92217463e-05,0.000499305073,0.00108514671,0.00170895224,0.00231370303,0.00283739444
1.85,5.97442335e-05,0.000500815005,0.00108786016,0.00171388836,0.00232398412,0.00286217059
1.9,6.02640211e-05,0.000502287298,0.00109045677,0.00171849277,0.00233317596,0.00288403633
1.95,6.07812797e-05,0.000503724718,0.00109294793,0.00172280937,0.00234147183,0.00290321236
2.0,6.12961658e-05,0.000505129742,0.00109534346,0.00172687416,0.00234902311,0.00292001939
2.05,6.18088236e-05,0.000506504592,0.00109765187,0.00173071692,0.00235594892,0.00293480888
2.1,6.23193862e-05,0.000507851273,0.00109988062,0.00173436257,0.00236234377,0.00294791166
2.15,6.28279771e-05,0.000509171599,0.00110203624,0.00173783213,0.00236828344,0.00295961381
2.2,6.33347107e-05,0.000510467212,0.00110412449,0.00174114349,0.00237382927,0.00297015175
2.25,6.3839694e-05,0.000511739613,0.0011061505,0.001744312,0.00237903151,0.00297971677
2.3,6.43430271e-05,0.000512990167,0.00110811883,0.0017473509,0.00238393166,0.00298846248
2.35,6.48448046e-05,0.000514220125,0.00111003355,0.00175027169,0.00238856438,0.00299651231
2.4,6.53451157e-05,0.000515430638,0.00111189835,0.00175308443,0.00239295882,0.00300396594
2.45,6.5844046e-05,0.000516622762,0.00111371651,0.00175579797,0.00239713974,0.00301090444
2.5,6.63416779e-05,0.000517797474,0.00111549104,0.00175842012,0.00240112832,0.00301739427
2.55,6.68380915e-05,0.000518955679,0.00111722465,0.00176095781,0.00240494277,0.00302349043
2.6,6.73333659e-05,0.000520098217,0.0011189198,0.00176341722,0.00240859891,0.00302923876
2.65,6.78275796e-05,0.000521225871,0.00112057875,0.00176580388,0.0024121105,0.00303467785
2.7,6.83208122e-05,0.000522339377,0.00112220357,0.00176812277,0.00241548963,0.00303984036
2.75,6.88131449e-05,0.000523439427,0.00112379616,0.00177037836,0.00241874694,0.00304475421
2.8,6.93046621e-05,0.000524526675,0.00112535826,0.00177257471,0.00242189187,0.00304944339
2.85,6.97954523e-05,0.000525601747,0.00112689148,0.0017747155,0.0024249328,0.00305392865
2.9,7.02856092e-05,0.000526665245,0.00112839734,0.0017768041,0.00242787724,0.00305822805
2.95,7.07752333e-05,0.000527717754,0.00112987721,0.00177884354,0.00243073189,0.0030623574
3.0,7.12644332e-05,0.000528759847,0.00113133242,0.00178083665,0.00243350281,0.0030663306
3.05,7.17533267e-05,0.000529792094,0.00113276418,0.001782786,0.00243619546,0.00307015997
3.1,7.22420428e-05,0.000530815068,0.00113417366,0.00178469396,0.0024388148,0.0030738564
3.15,7.27307226e-05,0.00053182935,0.00113556197,0.00178656273,0.00244136532,0.00307742965
3.2,7.3219521e-05,0.000532835539,0.00113693018,0.00178839434,0.00244385112,0.00308088843
3.25,7.37086085e-05,0.00053383426,0.00113827933,0.00179019071,0.00244627597,0.00308424057
3.3,7.41981727e-05,0.00053482617,0.00113961045,0.00179195361,0.00244864331,0.00308749315
3.35,7.46884195e-05,0.000535811965,0.00114092455,0.00179368472,0.00245095629,0.00309065255
3.4,7.51795754e-05,0.000536792392,0.00114222267,0.00179538565,0.00245321784,0.0030937246
3.45,7.56718886e-05,0.000537768257,0.00114350585,0.00179705792,0.00245543068,0.00309671456
3.5,7.61656308e-05,0.000538740429,0.0011447752,0.00179870303,0.00245759731,0.00309962726
3.55,7.6661099e-05,0.000539709854,0.00114603185,0.00180032242,0.00245972011,0.00310246713
3.6,7.71586167e-05,0.000540677564,0.00114727703,0.00180191755,0.00246180127,0.00310523823
3.65,7.76585359e-05,0.000541644683,0.00114851203,0.00180348986,0.00246384291,0.0031079443
3.7,7.81612386e-05,0.000542612436,0.00114973825,0.00180504083,0.00246584702,0.00311058878
3.75,7.8667138e-05,0.000543582161,0.00115095722,0.001806572,0.00246781554,0.00311317491
3.8,7.91766804e-05,0.000544555317,0.00115217059,0.00180808497,0.00246975035,0.00311570565
3.85,7.96903465e-05,0.000545533491,0.00115338016,0.00180958144,0.0024716533,0.00311818383
3.9,8.02086529e-05,0.000546518407,0.00115458794,0.00181106321,0.00247352627,0.00312061208
3.95,8.0732153e-05,0.000547511938,0.00115579608,0.00181253226,0.00247537113,0.00312299291
4.0,8.1261439e-05,0.000548516107,0.00115700698,0.00181399072,0.00247718984,0.00312532873
4.05,8.17971428e-05,0.000549533104,0.00115822324,0.00181544091,0.00247898441,0.00312762186
4.1,8.2339937e-05,0.000550565285,0.00115944773,0.00181688539,0.00248075699,0.00312987458
4.15,8.28905363e-05,0.000551615183,0.00116068355,0.00181832696,0.00248250986,0.00313208917
4.2,8.34496982e-05,0.000552685516,0.00116193412,0.00181976871,0.00248424549,0.00313426788
4.25,8.40182247e-05,0.000553779192,0.00116320312,0.00182121402,0.00248596655,0.00313641306
4.3,8.45969621e-05,0.000554899313,0.00116449456,0.00182266662,0.00248767598,0.00313852709
4.35,8.51868028e-05,0.000556049182,0.00116581279,0.00182413061,0.00248937699,0.00314061251
4.4,8.57886856e-05,0.00055723231,0.00116716249,0.00182561047,0.0024910731,0.00314267198
4.45,8.64035964e-05,0.000558452416,0.0011685487,0.00182711109,0.0024927682,0.00314470839
4.5,8.70325688e-05,0.000559713435,0.00116997684,0.00182863782,0.0024944666,0.00314672484
4.55,8.76766849e-05,0.000561019519,0.00117145271,0.00183019648,0.002496173,0.00314872473
4.6,8.83370753e-05,0.000562375041,0.00117298249,0.00183179339,0.0024978926,0.00315071178
4.65,8.90149199e-05,0.000563784595,0.0011745728,0.00183343536,0.00249963112,0.00315269006
4.7,8.97114478e-05,0.000565253004,0.00117623064,0.00183512979,0.0025013948,0.0031546641
4.75,9.0427938e-05,0.000566785312,0.00117796347,0.0018368846,0.0025031905,0.00315663885
4.8,9.11657193e-05,0.000568386796,0.00117977915,0.00183870832,0.00250502567,0.00315861981
4.85,9.19261703e-05,0.000570062954,0.00118168599,0.00184061007,0.00250690842,0.00316061301
4.9,9.27107198e-05,0.000571819518,0.00118369276,0.00184259961,0.00250884757,0.00316262512
4.95,9.35208464e-05,0.000573662442,0.00118580866,0.0018446873,0.00251085263,0.00316466344
5.0,9.43580786e-05,0.000575597909,0.00118804333,0.00184688419,0.00251293389,0.00316673598
5.05,9.52239947e-05,0.000577632324,0.00119040688,0.00184920195,0.0025151024,0.00316885151
5.1,9.61202223e-05,0.000579772317,0.00119290988,0.00185165296,0.00251737002,0.00317101958
5.15,9.70484385e-05,0.000582024738,0.00119556334,0.00185425026,0.00251974944,0.0031732506
5.2,9.80103693e-05,0.000584396654,0.00119837873,0.00185700758,0.0025222542,0.00317555581
5.25,9.90077892e-05,0.000586895347,0.00120136795,0.00185993934,0.00252489872,0.00317794743
5.3,0.000100042521,0.000589528314,0.00120454338,0.00186306067,0.0025276983,0.00318043858
5.35,0.000101116434,0.000592303255,0.00120791782,0.00186638739,0.00253066915,0.00318304342
5.4,0.000102231448,0.000595228078,0.00121150453,0.00186993603,0.0025338284,0.00318577709
5.45,0.000103389525,0.00059831089,0.00121531718,0.00187372381,0.00253719412,0.00318865581
5.5,0.000104592677,0.000601559994,0.00121936988,0.00187776864,0.0025407853,0.00319169687
5.55,0.000105842959,0.000604983883,0.00122367716,0.00188208914,0.00254462189,0.00319491868
5.6,0.000107142472,0.000608591238,0.00122825396,0.0018867046,0.00254872478,0.00319834076
5.65,0.000108493361,0.00061239092,0.00123311563,0.00189163501,0.00255311581,0.00320198379
5.7,0.000109897813,0.000616391965,0.00123827791,0.001896901,0.00255781779,0.00320586961
5.75,0.00011135806,0.000620603582,0.00124375693,0.00190252391,0.00256285446,0.00321002123
5.8,0.000112876374,0.000625035143,0.0012495692,0.00190852568,0.0025682505,0.00321446285
5.85,0.00011445507,0.00062969618,0.00125573157,0.00191492893,0.00257403154,0.00321921987
5.9,0.000116096502,0.000634596379,0.00126226128,0.00192175688,0.00258022414,0.00322431889
5.95,0.000117803063,0.000639745572,0.0012691759,0.00192903338,0.00258685577,0.00322978769
6.0,0.000119577186,0.000645153734,0.00127649332,0.00193678287,0.00259395481,0.00323565526
6.05,0.000121421342,0.000650830977,0.00128423176,0.00194503039,0.00260155053,0.0032419518
6.1,0.000123338037,0.00065678754,0.00129240975,0.00195380151,0.00260967308,0.00324870867
6.15,0.000125329816,0.000663033788,0.00130104612,0.0019631224,0.00261835346,0.00325595844
6.2,0.000127399255,0.000669580203,0.00131015996,0.00197301971,0.00262762354,0.00326373481
6.25,0.000129548969,0.000676437377,0.00131977066,0.00198352066,0.00263751597,0.00327207267
6.3,0.000131781603,0.00068361601,0.00132989785,0.00199465291,0.00264806425,0.00328100803
6.35,0.000134099836,0.000691126899,0.0013405614,0.00200644463,0.00265930261,0.00329057801
6.4,0.000136506378,0.000698980936,0.00135178142,0.00201892445,0.00267126608,0.00330082087
6.45,0.00013900397,0.0007071891,0.00136357824,0.00203212142,0.0026839904,0.00331177589
6.5,0.000141595382,0.000715762451,0.0013759724,0.00204606501,0.00269751203,0.00332348345
6.55,0.000144283414,0.000724712124,0.0013889846,0.0020607851,0.00271186809,0.00333598495
6.6,0.000147070893,0.000734049324,0.00140263576,0.00207631192,0.00272709639,0.00334932278
