vds,vb1,vb2,vb3,vb4,vb5,vb6
0.0,-0.0,-0.0,-0.0,-0.0,-0.0,-0.0
0.05,7.5652026e-07,3.26701095e-06,5.40715875e-06,7.12291497e-06,8.42086481e-06,9.34590926e-06
0.1,1.35477733e-06,6.36683296e-06,1.06574125e-05,1.41026396e-05,1.67134597e-05,1.85784449e-05
0.15,1.79692297e-06,9.2999087e-06,1.57511801e-05,2.09395419e-05,2.48780931e-05,2.76978575e-05
0.2,2.08885273e-06,1.20666817e-05,2.06888783e-05,2.76339881e-05,3.29150717e-05,3.67043964e-05
0.25,2.24839275e-06,1.46675977e-05,2.54709228e-05,3.41863434e-05,4.08247014e-05,4.55983101e-05
0.3,2.31662827e-06,1.71031062e-05,3.00977276e-05,4.05969714e-05,4.8607287e-05,5.43798465e-05
0.35,2.34248229e-06,1.93736633e-05,3.45697054e-05,4.68662345e-05,5.62631323e-05,6.30492525e-05
0.4,2.35354434e-06,2.14797345e-05,3.88872677e-05,5.2994494e-05,6.37925401e-05,7.16067746e-05
0.45,2.35946584e-06,2.34218015e-05,4.30508248e-05,5.89821098e-05,7.11958123e-05,8.00526583e-05
0.5,2.36333451e-06,2.52003712e-05,4.70607856e-05,6.48294406e-05,7.84732497e-05,8.83871485e-05
0.55,2.36625214e-06,2.68159917e-05,5.09175581e-05,7.05368438e-05,8.56251522e-05,9.66104893e-05
0.6,2.36867171e-06,2.82692805e-05,5.46215491e-05,7.61046754e-05,9.26518186e-05,0.000104722924
0.65,2.37080411e-06,2.95609748e-05,5.81731645e-05,8.15332905e-05,9.9553547e-05,0.000112724696
0.7,2.37275788e-06,3.06920255e-05,6.15728097e-05,8.68230427e-05,0.000106330634,0.000120616046
0.75,2.37459364e-06,3.16637797e-05,6.48208893e-05,9.19742843e-05,0.000112983376,0.000128397217
0.8,2.37634752e-06,3.24783411e-05,6.79178079e-05,9.69873664e-05,0.000119512068,0.000136068447
0.85,2.37804226e-06,3.31392894e-05,7.08639704e-05,0.000101862639,0.000125917004,0.000143629979
0.9,2.37969282e-06,3.36530486e-05,7.36597826e-05,0.00010660045,0.000132198476,0.000151082049
0.95,2.38130944e-06,3.40311201e-05,7.6305652e-05,0.000111201148,0.000138356777,0.000158424898
1.0,2.38289936e-06,3.42924583e-05,7.88019895e-05,0.000115665078,0.000144392198,0.000165658761
1.05,2.38446782e-06,3.4463252e-05,8.1149211e-05,0.000119992585,0.000150305029,0.000172783877
1.1,2.38601874e-06,3.4571748e-05,8.33477407e-05,0.000124184013,0.000156095559,0.000179800482
1.15,2.38755508e-06,3.46414293e-05,8.53980157e-05,0.000128239703,0.000161764077,0.000186708811
1.2,2.38907916e-06,3.46881369e-05,8.73004936e-05,0.000132159997,0.000167310868,0.000193509099
1.25,2.39059279e-06,3.47213016e-05,8.90556639e-05,0.000135945233,0.00017273622,0.00020020158
1.3,2.39209742e-06,3.47462725e-05,9.06640677e-05,0.00013959575,0.000178040417,0.000206786487
1.35,2.39359422e-06,3.4766088e-05,9.21263299e-05,0.000143111886,0.000183223744,0.000213264053
1.4,2.39508417e-06,3.47825202e-05,9.34432143e-05,0.000146493974,0.000188286482,0.00021963451
1.45,2.39656805e-06,3.4796641e-05,9.46157187e-05,0.000149742351,0.000193228916,0.00022589809
1.5,2.39804655e-06,3.48091246e-05,9.56452414e-05,0.000152857348,0.000198051324,0.000232055022
1.55,2.39952023e-06,3.48204105e-05,9.65338708e-05,0.000155839297,0.000202753987,0.000238105536
1.6,2.40098956e-06,3.48307954e-05,9.72848763e-05,0.00015868853,0.000207337184,0.000244049862
1.65,2.40245497e-06,3.48404856e-05,9.79034858e-05,0.000161405376,0.000211801192,0.000249888227
1.7,2.40391681e-06,3.48496286e-05,9.83979418e-05,0.000163990166,0.000216146288,0.00025562086
1.75,2.4053754e-06,3.48583325e-05,9.87805196e-05,0.000166443229,0.000220372746,0.000261247987
1.8,2.406831e-06,3.48666781e-05,9.90677136e-05,0.000168764897,0.00022448084,0.000266769834
1.85,2.40828387e-06,3.48747271e-05,9.9278771e-05,0.000170955505,0.000228470844,0.000272186626
1.9,2.4097342e-06,3.48825274e-05,9.94328517e-05,0.000173015392,0.000232343028,0.000277498588
1.95,2.41118219e-06,3.48901167e-05,9.95463758e-05,0.00017494491,0.000236097662,0.000282705945
2.0,2.41262803e-06,3.48975253e-05,9.96318394e-05,0.000176744425,0.000239735014,0.000287808917
2.05,2.41407185e-06,3.49047775e-05,9.96980338e-05,0.000178414333,0.000243255351,0.000292807729
2.1,2.41551382e-06,3.49118933e-05,9.97508915e-05,0.000179955076,0.000246658938,0.000297702601
2.15,2.41695408e-06,3.49188894e-05,9.97943601e-05,0.000181367175,0.000249946038,0.000302493753
2.2,2.41839276e-06,3.49257796e-05,9.98310761e-05,0.000182651278,0.000253116913,0.000307181406
2.25,2.41983001e-06,3.49325754e-05,9.98628242e-05,0.000183808247,0.000256171821,0.000311765777
2.3,2.42126599e-06,3.49392868e-05,9.98908356e-05,0.000184839302,0.00025911102,0.000316247086
2.35,2.42270086e-06,3.49459222e-05,9.99159771e-05,0.000185746247,0.000261934763,0.000320625548
2.4,2.42413483e-06,3.4952489e-05,9.99388719e-05,0.000186531821,0.000264643303,0.000324901379
2.45,2.42556811e-06,3.49589935e-05,9.99599766e-05,0.000187200213,0.000267236889,0.000329074795
2.5,2.427001e-06,3.49654411e-05,9.99796327e-05,0.000187757669,0.000269715768,0.00033314601
2.55,2.42843383e-06,3.49718367e-05,9.99980996e-05,0.00018821305,0.000272080181,0.000337115235
2.6,2.429867e-06,3.49781846e-05,0.000100015578,0.000188577958,0.000274330371,0.000340982682
2.65,2.43130104e-06,3.49844885e-05,0.000100032225,0.000188866117,0.000276466574,0.000344748562
2.7,2.43273654e-06,3.49907519e-05,0.000100048165,0.000189092012,0.000278489027,0.000348413083
2.75,2.43417425e-06,3.49969778e-05,0.000100063499,0.000189269313,0.000280397968,0.000351976453
2.8,2.43561508e-06,3.5003169e-05,0.000100078309,0.000189409733,0.000282193635,0.000355438877
2.85,2.4370601e-06,3.50093281e-05,0.000100092662,0.00018952259,0.000283876277,0.00035880056
2.9,2.4385106e-06,3.50154576e-05,0.000100106613,0.000189614932,0.000285446162,0.000362061702
2.95,2.4399681e-06,3.50215599e-05,0.000100120209,0.00018969194,0.00028690359,0.000365222506
3.0,2.44143438e-06,3.50276375e-05,0.000100133491,0.000189757376,0.000288248923,0.000368283168
3.05,2.44291152e-06,3.50336928e-05,0.00010014649,0.000189813964,0.000289482628,0.000371243883
3.1,2.44440192e-06,3.50397287e-05,0.000100159236,0.00018986369,0.00029060535,0.000374104845
3.15,2.44590836e-06,3.50457483e-05,0.000100171754,0.000189908017,0.000291618027,0.000376866241
3.2,2.447434e-06,3.50517553e-05,0.000100184065,0.000189948034,0.000292522069,0.000379528259
3.25,2.44898244e-06,3.50577539e-05,0.000100196188,0.000189984565,0.000293319619,0.00038209108
3.3,2.45055776e-06,3.50637493e-05,0.000100208138,0.000190018239,0.0002940139,0.000384554882
3.35,2.45216451e-06,3.50697477e-05,0.000100219931,0.000190049544,0.000294609615,0.000386919836
3.4,2.45380781e-06,3.50757567e-05,0.000100231579,0.000190078864,0.000295113289,0.00038918611
3.45,2.45549334e-06,3.50817855e-05,0.000100243094,0.000190106505,0.000295533376,0.000391353864
3.5,2.4572274e-06,3.5087845e-05,0.000100254486,0.00019013271,0.000295879957,0.000393423253
3.55,2.45901693e-06,3.50939486e-05,0.000100265764,0.00019015768,0.000296164021,0.000395394424
3.6,2.46086955e-06,3.51001121e-05,0.000100276936,0.000190181577,0.000296396518,0.000397267517
3.65,2.46279357e-06,3.51063542e-05,0.000100288012,0.000190204536,0.000296587514,0.000399042666
3.7,2.46479806e-06,3.51126973e-05,0.000100298998,0.000190226671,0.000296745668,0.000400719998
3.75,2.46689286e-06,3.51191673e-05,0.000100309902,0.000190248075,0.000296878063,0.000402299642
3.8,2.46908859e-06,3.51257943e-05,0.000100320731,0.000190268831,0.000296990298,0.00040378173
3.85,2.47139671e-06,3.51326134e-05,0.000100331495,0.000190289005,0.000297086709,0.000405166411
3.9,2.47382951e-06,3.51396646e-05,0.000100342202,0.000190308657,0.000297170619,0.000406453875
3.95,2.47640016e-06,3.51469936e-05,0.000100352863,0.000190327837,0.000297244568,0.000407644382
4.0,2.47912271e-06,3.51546524e-05,0.000100363488,0.000190346591,0.0002973105,0.000408738323
4.05,2.4820121e-06,3.51626996e-05,0.000100374093,0.000190364956,0.000297369914,0.000409736305
4.1,2.48508423e-06,3.5171201e-05,0.000100384694,0.000190382967,0.000297423975,0.000410639286
4.15,2.48835589e-06,3.51802299e-05,0.000100395311,0.000190400652,0.000297473594,0.000411448756
4.2,2.49184484e-06,3.51898679e-05,0.000100405969,0.00019041804,0.000297519492,0.000412166984
4.25,2.49556979e-06,3.52002051e-05,0.000100416697,0.000190435153,0.000297562246,0.00041279729
4.3,2.49955039e-06,3.5211341e-05,0.000100427531,0.000190452012,0.000297602319,0.00041334429
4.35,2.50380728e-06,3.52233843e-05,0.000100438513,0.000190468637,0.000297640088,0.000413814015
4.4,2.50836204e-06,3.52364539e-05,0.000100449694,0.000190485045,0.000297675864,0.000414213808
4.45,2.51323724e-06,3.52506789e-05,0.000100461133,0.000190501254,0.000297709903,0.000414551952
4.5,2.5184564e-06,3.52661994e-05,0.000100472899,0.000190517278,0.000297742418,0.000414837111
4.55,2.52404399e-06,3.52831667e-05,0.000100485074,0.000190533133,0.000297773589,0.000415077726
4.6,2.53002545e-06,3.53017433e-05,0.000100497752,0.000190548835,0.000297803567,0.000415281532
4.65,2.53642715e-06,3.53221039e-05,0.000100511041,0.000190564399,0.000297832482,0.000415455274
4.7,2.54327641e-06,3.5344435e-05,0.000100525065,0.000190579844,0.000297860445,0.000415604613
4.75,2.55060146e-06,3.53689356e-05,0.000100539965,0.000190595189,0.000297887551,0.000415734181
4.8,2.55843145e-06,3.53958173e-05,0.0001005559,0.000190610456,0.000297913883,0.0004158477
4.85,2.56679641e-06,3.54253044e-05,0.000100573048,0.000190625673,0.000297939512,0.000415948135
4.9,2.57572727e-06,3.54576342e-05,0.000100591611,0.000190640871,0.000297964503,0.000416037841
4.95,2.58525581e-06,3.54930569e-05,0.000100611811,0.000190656088,0.000297988909,0.000416118685
5.0,2.59541466e-06,3.55318361e-05,0.000100633895,0.00019067137,0.000298012781,0.000416192153
5.05,2.60623725e-06,3.55742483e-05,0.000100658134,0.000190686771,0.000298036161,0.000416259437
5.1,2.61775785e-06,3.56205835e-05,0.000100684828,0.000190702359,0.000298059089,0.000416321492
5.15,2.63001149e-06,3.56711449e-05,0.000100714304,0.000190718211,0.0002980816,0.000416379096
5.2,2.64303394e-06,3.57262488e-05,0.000100746916,0.00019073442,0.000298103724,0.000416432883
5.25,2.65686174e-06,3.57862248e-05,0.000100783052,0.000190751099,0.000298125492,0.000416483372
5.3,2.67153212e-06,3.58514154e-05,0.000100823128,0.000190768375,0.00029814693,0.000416530996
5.35,2.68708298e-06,3.59221761e-05,0.000100867595,0.000190786401,0.000298168065,0.000416576114
5.4,2.70355291e-06,3.59988754e-05,0.000100916935,0.000190805351,0.00029818892,0.000416619027
5.45,2.7209811e-06,3.60818941e-05,0.000100971665,0.000190825426,0.000298209521,0.000416659991
5.5,2.73940737e-06,3.61716258e-05,0.000101032338,0.000190846858,0.000298229895,0.000416699222
5.55,2.75887212e-06,3.62684761e-05,0.00010109954,0.000190869909,0.000298250069,0.000416736907
5.6,2.77941627e-06,3.63728627e-05,0.000101173896,0.000190894875,0.000298270076,0.000416773203
5.65,2.80108131e-06,3.64852151e-05,0.000101256064,0.000190922091,0.00029828995,0.000416808249
5.7,2.82390918e-06,3.66059742e-05,0.000101346742,0.000190951929,0.000298309734,0.000416842165
5.75,2.84794234e-06,3.67355921e-05,0.000101446664,0.000190984807,0.000298329477,0.000416875055
5.8,2.87322365e-06,3.68745319e-05,0.000101556603,0.000191021184,0.000298349239,0.00041690701
5.85,2.8997964e-06,3.7023267e-05,0.000101677366,0.000191061571,0.00029836909,0.000416938112
5.9,2.92770428e-06,3.71822814e-05,0.0001018098,0.000191106524,0.000298389118,0.000416968431
5.95,2.95699132e-06,3.73520686e-05,0.000101954791,0.000191156657,0.000298409423,0.000416998032
6.0,2.98770189e-06,3.75331321e-05,0.000102113259,0.000191212634,0.000298430128,0.00041702697
6.05,3.01988068e-06,3.77259842e-05,0.000102286163,0.00019127518,0.000298451378,0.000417055298
6.1,3.05357264e-06,3.79311461e-05,0.0001024745,0.000191345075,0.000298473345,0.00041708306
6.15,3.08882299e-06,3.81491475e-05,0.000102679301,0.000191423163,0.000298496229,0.0004171103
6.2,3.12567716e-06,3.8380526e-05,0.000102901634,0.00019151035,0.000298520265,0.000417137058
6.25,3.1641808e-06,3.86258271e-05,0.000103142603,0.000191607605,0.000298545723,0.000417163369
6.3,3.20437973e-06,3.88856033e-05,0.000103403347,0.000191715965,0.000298572917,0.00041718927
6.35,3.24631993e-06,3.9160414e-05,0.000103685038,0.00019183653,0.000298602203,0.000417214798
6.4,3.2900475e-06,3.94508252e-05,0.000103988883,0.000191970473,0.000298633989,0.000417239988
6.45,3.33560864e-06,3.97574089e-05,0.000104316121,0.000192119033,0.000298668734,0.000417264882
6.5,3.38304966e-06,4.00807428e-05,0.000104668022,0.000192283519,0.000298706957,0.000417289522
6.55,3.43241688e-06,4.04214098e-05,0.00010504589,0.000192465312,0.000298749236,0.000417313958
6.6,3.48375671e-06,4.07799976e-05,0.000105451057,0.000192665862,0.000298796218,0.000417338247
