vds,vb1,vb2,vb3,vb4,vb5,vb6
0.0,-0.0,-0.0,-0.0,-0.0,-0.0,-0.0
0.05,2.21417188e-05,9.81137168e-05,0.000155125479,0.000197553381,0.000227439595,0.000247055277
0.1,3.77406087e-05,0.000188001346,0.000301310307,0.000386030916,0.000446117127,0.000485940564
0.15,4.73877025e-05,0.000269985606,0.000438894381,0.000565753618,0.000656314781,0.000716892667
0.2,5.24570382e-05,0.000344373041,0.000568200423,0.000737027413,0.000858302679,0.00094013929
0.25,5.51406415e-05,0.000411455246,0.000689534895,0.000900143895,0.00105233945,0.00115589943
0.3,5.69238801e-05,0.000471510234,0.000803188841,0.00105538101,0.00123867272,0.00136438371
0.35,5.83264314e-05,0.000524804068,0.000909438688,0.0012030037,0.0014175396,0.00156579473
0.4,5.95193079e-05,0.000571593075,0.00100854701,0.00134326452,0.00158916712,0.00176032737
0.45,6.05752513e-05,0.000612127476,0.0011007632,0.00147640425,0.00175377267,0.00194816906
0.5,6.15329501e-05,0.000646659037,0.00118632405,0.00160265251,0.00191156442,0.00212950009
0.55,6.24160731e-05,0.000675460997,0.00126545395,0.00172222833,0.00206274179,0.00230449388
0.6,6.32404171e-05,0.000698881807,0.00133836468,0.00183534065,0.00220749584,0.00247331728
0.65,6.40171538e-05,0.000717455272,0.00140525429,0.00194218877,0.0023460097,0.00263613087
0.7,6.47545174e-05,0.000731990274,0.00146630451,0.0020429626,0.00247845901,0.00279308923
0.75,6.545877e-05,0.000743452709,0.00152167554,0.00213784274,0.0026050122,0.0029443412
0.8,6.61347929e-05,0.000752709174,0.00157149711,0.00222700011,0.00272583088,0.00309003021
0.85,6.67864684e-05,0.000760398889,0.00161585599,0.00231059508,0.00284107004,0.0032302945
0.9,6.74169371e-05,0.000766955051,0.00165478926,0.00238877567,0.00295087822,0.00336526735
0.95,6.80287762e-05,0.000772667202,0.0016883166,0.00246167418,0.00305539744,0.00349507735
1.0,6.86241267e-05,0.000777732317,0.00171656132,0.00252940148,0.00315476304,0.00361984852
1.05,6.92047869e-05,0.000782288191,0.00173992273,0.00259203737,0.0032491031,0.00373970049
1.1,6.9772282e-05,0.000786434066,0.00175911013,0.00264961598,0.00333853744,0.00385474855
1.15,7.0327916e-05,0.000790243383,0.00177496501,0.00270210698,0.00342317587,0.00396510366
1.2,7.08728132e-05,0.000793771821,0.00178825762,0.00274940321,0.00350311526,0.00407087233
1.25,7.1407949e-05,0.000797062501,0.00179959834,0.00279134551,0.00357843484,0.00417215632
1.3,7.19341753e-05,0.000800149448,0.00180944023,0.00282782905,0.00364918873,0.00426905219
1.35,7.24522404e-05,0.000803059949,0.00181811291,0.00285897769,0.00371539457,0.00436165045
1.4,7.29628049e-05,0.000805816209,0.0018258569,0.00288524979,0.00377701757,0.00445003423
1.45,7.34664549e-05,0.000808436527,0.00183284997,0.00290735767,0.00383395254,0.00453427722
1.5,7.39637129e-05,0.000810936152,0.0018392258,0.00292607982,0.00388601482,0.00461444044
1.55,7.44550462e-05,0.000813327926,0.0018450867,0.00294211665,0.00393296673,0.00469056735
1.6,7.49408748e-05,0.000815622759,0.00185051232,0.002956036,0.00397461108,0.00476267642
1.65,7.54215771e-05,0.000817829997,0.00185556567,0.00296827622,0.00401093999,0.00483075046
1.7,7.58974955e-05,0.000819957704,0.00186029734,0.00297916985,0.00404224268,0.00489472243
1.75,7.63689408e-05,0.00082201289,0.00186474845,0.002988969,0.00406907597,0.00495446032
1.8,7.68361956e-05,0.00082400168,0.00186895288,0.00299786635,0.00409212582,0.00500975967
1.85,7.72995179e-05,0.000825929461,0.00187293882,0.00300601088,0.00411206833,0.00506036286
1.9,7.7759144e-05,0.000827800995,0.00187672994,0.0030135193,0.00412949215,0.00510602774
1.95,7.82152903e-05,0.000829620509,0.00188034634,0.00302048429,0.00414487694,0.00514664288
2.0,7.86681563e-05,0.000831391774,0.00188380518,0.00302698038,0.00415860157,0.00518233193
2.05,7.91179257e-05,0.00083311817,0.00188712125,0.00303306824,0.00417096194,0.00521347033
2.1,7.95647685e-05,0.000834802734,0.00189030736,0.00303879778,0.00418218919,0.00524060376
2.15,8.00088425e-05,0.000836448208,0.00189337469,0.00304421054,0.00419246499,0.00526433213
2.2,8.04502945e-05,0.000838057073,0.00189633307,0.00304934138,0.00420193342,0.00528522178
2.25,8.08892617e-05,0.000839631585,0.00189919114,0.0030542198,0.00421070994,0.00530376299
2.3,8.13258729e-05,0.0008411738,0.00190195658,0.00305887101,0.00421888805,0.00532036079
2.35,8.17602494e-05,0.000842685593,0.00190463621,0.00306331668,0.00422654426,0.00533534218
2.4,8.21925068e-05,0.000844168687,0.00190723614,0.00306757554,0.00423374183,0.00534896896
2.45,8.26227552e-05,0.000845624663,0.00190976186,0.00307166395,0.00424053353,0.00536145069
2.5,8.30511011e-05,0.000847054979,0.00191221831,0.00307559621,0.00424696377,0.00537295589
2.55,8.3477648e-05,0.000848460983,0.00191460994,0.00307938491,0.00425307022,0.005383621
2.6,8.39024978e-05,0.000849843927,0.00191694082,0.00308304122,0.00425888512,0.00539355746
2.65,8.4325752e-05,0.000851204976,0.00191921463,0.00308657505,0.0042644362,0.00540285699
2.7,8.47475129e-05,0.000852545221,0.00192143472,0.00308999524,0.00426974748,0.00541159583
2.75,8.51678847e-05,0.000853865687,0.00192360419,0.00309330974,0.00427483993,0.00541983779
2.8,8.55869751e-05,0.000855167345,0.00192572586,0.00309652568,0.00427973191,0.00542763678
2.85,8.60048968e-05,0.000856451121,0.00192780233,0.00309964952,0.00428443958,0.00543503864
2.9,8.64217685e-05,0.000857717905,0.00192983601,0.00310268708,0.00428897729,0.00544208265
2.95,8.68377166e-05,0.00085896856,0.00193182914,0.00310564368,0.00429335776,0.00544880267
3.0,8.72528772e-05,0.000860203935,0.0019337838,0.00310852416,0.00429759238,0.0054552281
3.05,8.76673969e-05,0.00086142487,0.00193570194,0.00311133294,0.00430169133,0.00546138457
3.1,8.8081435e-05,0.000862632212,0.0019375854,0.00311407408,0.00430566381,0.0054672946
3.15,8.84951651e-05,0.000863826823,0.00193943594,0.00311675131,0.00430951809,0.00547297802
3.2,8.89087768e-05,0.000865009592,0.00194125522,0.00311936808,0.00431326167,0.0054784524
3.25,8.93224773e-05,0.000866181444,0.00194304487,0.00312192759,0.0043169014,0.0054837334
3.3,8.97364933e-05,0.000867343359,0.00194480647,0.00312443283,0.00432044347,0.00548883497
3.35,9.01510726e-05,0.000868496376,0.0019465416,0.00312688658,0.00432389358,0.00549376965
3.4,9.05664861e-05,0.000869641614,0.00194825183,0.00312929148,0.00432725695,0.00549854873
3.45,9.09830295e-05,0.000870780278,0.00194993879,0.00313165003,0.00433053838,0.00550318238
3.5,9.14010248e-05,0.000871913681,0.00195160413,0.00313396463,0.0043337423,0.00550767984
3.55,9.18208224e-05,0.000873043247,0.00195324958,0.0031362376,0.00433687282,0.0055120495
3.6,9.22428025e-05,0.000874170537,0.001954877,0.00313847124,0.00433993379,0.00551629902
3.65,9.26673768e-05,0.000875297254,0.00195648835,0.00314066781,0.00434292878,0.00552043538
3.7,9.30949903e-05,0.000876425259,0.00195808575,0.0031428296,0.00434586119,0.005524465
3.75,9.35261227e-05,0.000877556591,0.00195967151,0.00314495896,0.00434873426,0.0055283938
3.8,9.39612897e-05,0.000878693472,0.00196124815,0.00314705833,0.00435155107,0.00553222722
3.85,9.4401045e-05,0.000879838327,0.00196281843,0.00314913026,0.00435431464,0.00553597032
3.9,9.48459811e-05,0.000880993795,0.00196438537,0.00315117749,0.00435702793,0.00553962783
3.95,9.5296731e-05,0.000882162743,0.00196595231,0.00315320294,0.00435969389,0.00554320415
4.0,9.57539693e-05,0.000883348279,0.00196752291,0.00315520981,0.00436231552,0.00554670345
4.05,9.62184131e-05,0.000884553762,0.00196910119,0.00315720155,0.00436489589,0.00555012969
4.1,9.66908235e-05,0.000885782815,0.00197069157,0.00315918199,0.0043674382,0.00555348669
4.15,9.71720065e-05,0.000887039339,0.00197229889,0.00316115532,0.00436994584,0.00555677812
4.2,9.76628136e-05,0.000888327518,0.00197392844,0.00316312616,0.00437242242,0.00556000763
4.25,9.81641429e-05,0.000889651832,0.00197558598,0.00316509963,0.00437487185,0.00556317884
4.3,9.86769397e-05,0.000891017066,0.00197727779,0.00316708134,0.00437729838,0.00556629541
4.35,9.92021974e-05,0.000892428318,0.00197901069,0.00316907751,0.00437970667,0.00556936112
4.4,9.97409577e-05,0.000893891005,0.00198079205,0.00317109496,0.00438210185,0.00557237987
4.45,0.000100294311,0.000895410872,0.00198262983,0.00317314119,0.00438448957,0.00557535584
4.5,0.000100863398,0.000896993997,0.00198453259,0.00317522441,0.00438687608,0.00557829344
4.55,0.000101449408,0.000898646794,0.00198650954,0.0031773536,0.00438926831,0.00558119749
4.6,0.00010205358,0.000900376021,0.00198857052,0.00317953854,0.0043916739,0.00558407319
4.65,0.000102677204,0.00090218878,0.00199072604,0.00318178986,0.00439410127,0.00558692629
4.7,0.00010332162,0.000904092524,0.00199298731,0.00318411908,0.00439655973,0.00558976311
4.75,0.000103988217,0.000906095051,0.00199536624,0.00318653866,0.0043990595,0.00559259061
4.8,0.000104678435,0.000908204516,0.00199787544,0.00318906202,0.00440161178,0.00559541653
4.85,0.000105393763,0.000910429419,0.00200052824,0.00319170356,0.00440422884,0.00559824941
4.9,0.000106135741,0.000912778615,0.00200333874,0.00319447876,0.00440692404,0.00560109872
4.95,0.000106905956,0.000915261306,0.00200632175,0.00319740411,0.00440971194,0.00560397491
5.0,0.000107706047,0.000917887041,0.00200949283,0.00320049722,0.00441260831,0.00560688951
5.05,0.000108537699,0.000920665717,0.00201286832,0.00320377682,0.00441563019,0.00560985523
5.1,0.000109402645,0.000923607568,0.00201646529,0.00320726275,0.00441879599,0.00561288601
5.15,0.000110302668,0.000926723167,0.00202030157,0.00321097602,0.00442212547,0.0056159971
5.2,0.000111239596,0.000930023421,0.00202439574,0.0032149388,0.00442563983,0.00561920517
5.25,0.000112215303,0.000933519563,0.00202876716,0.00321917445,0.00442936172,0.00562252838
5.3,0.00011323171,0.000937223149,0.00203343591,0.0032237075,0.00443331532,0.0056259864
5.35,0.000114290782,0.000941146049,0.0020384228,0.0032285637,0.00443752632,0.00562960056
5.4,0.000115394529,0.000945300445,0.00204374942,0.00323376999,0.00444202199,0.00563339385
5.45,0.000116545004,0.00094969882,0.00204943805,0.00323935449,0.00444683118,0.00563739102
5.5,0.000117744302,0.000954353951,0.00205551168,0.00324534656,0.00445198435,0.00564161861
5.55,0.000118994561,0.000959278904,0.00206199403,0.00325177671,0.00445751361,0.00564610503
5.6,0.000120297958,0.000964487021,0.00206890949,0.00325867668,0.00446345268,0.00565088057
5.65,0.000121656712,0.000969991916,0.00207628313,0.00326607934,0.00446983695,0.0056559775
5.7,0.000123073079,0.000975807466,0.0020841407,0.00327401876,0.00447670346,0.00566143005
5.75,0.000124549356,0.000981947798,0.00209250858,0.00328253015,0.00448409089,0.00566727447
5.8,0.000126087873,0.000988427285,0.00210141377,0.00329164984,0.0044920396,0.00567354907
5.85,0.000127690999,0.000995260534,0.00211088391,0.0033014153,0.00450059157,0.00568029421
5.9,0.000129361139,0.00100246238,0.00212094721,0.00331186508,0.00450979042,0.00568755234
5.95,0.000131100728,0.00101004786,0.00213163245,0.00332303879,0.00451968142,0.00569536801
6.0,0.000132912239,0.00101803223,0.002142969,0.00333497711,0.00453031139,0.00570378786
6.05,0.000134798173,0.00102643094,0.00215498673,0.00334772173,0.00454172879,0.00571286066
6.1,0.000136761064,0.00103525962,0.00216771603,0.00336131534,0.00455398361,0.00572263726
6.15,0.000138803476,0.00104453408,0.0021811878,0.00337580159,0.00456712739,0.00573317062
6.2,0.000140928002,0.0010542703,0.00219543339,0.00339122507,0.00458121315,0.00574451577
6.25,0.000143137262,0.00106448441,0.00221048462,0.00340763128,0.00459629543,0.00575672981
6.3,0.000145433904,0.00107519268,0.00222637372,0.00342506659,0.00461243017,0.00576987188
6.35,0.000147820602,0.00108641154,0.00224313334,0.00344357821,0.00462967474,0.00578400317
6.4,0.000150300052,0.00109815752,0.00226079651,0.00346321417,0.00464808787,0.00579918681
6.45,0.000152874978,0.00111044729,0.00227939661,0.00348402325,0.00466772963,0.00581548793
6.5,0.000155548125,0.0011232976,0.00229896738,0.003506055,0.00468866136,0.00583297357
6.55,0.000158322258,0.00113672532,0.00231954287,0.00352935965,0.00471094567,0.00585171265
6.6,0.000161200165,0.00115074741,0.00234115741,0.00355398812,0.00473464633,0.00587177593
