vds,vb1,vb2,vb3,vb4,vb5,vb6
0.0,-0.0,-0.0,-0.0,-0.0,-0.0,-0.0
0.05,7.3829377e-06,3.36850345e-05,5.41514175e-05,6.96256359e-05,8.06776884e-05,8.80499365e-05
0.1,1.27275156e-05,6.48913794e-05,0.000105672789,0.000136618714,0.000158834345,0.000173760494
0.15,1.61582214e-05,9.36857002e-05,0.000154633866,0.000201044791,0.000234527469,0.000257179895
0.2,1.79852506e-05,0.00012013239,0.000201101942,0.000262967256,0.00030781282,0.000338355039
0.25,1.8835711e-05,0.000144293707,0.000245141952,0.000322447409,0.000378744477,0.000417331552
0.3,1.92904785e-05,0.000166229944,0.000286816561,0.000379544541,0.000447374893,0.000494153819
0.35,1.95973729e-05,0.000185999627,0.00032618625,0.000434315999,0.000513754953,0.000568865027
0.4,1.98352235e-05,0.000203659826,0.000363309394,0.000486817259,0.000577934021,0.000641507199
0.45,2.00330686e-05,0.000219266644,0.00039824234,0.000537101991,0.000639959989,0.000712121222
0.5,2.02043629e-05,0.000232876184,0.000431039467,0.00058522212,0.000699879325,0.000780746889
0.55,2.03565163e-05,0.000244546647,0.000461753237,0.00063122789,0.00075773712,0.000847422923
0.6,2.04941104e-05,0.0002543434,0.000490434221,0.00067516792,0.000813577133,0.00091218701
0.65,2.06202088e-05,0.000262351386,0.000517131085,0.000717089258,0.000867441832,0.000975075833
0.7,2.07369766e-05,0.000268701597,0.000541890514,0.000757037426,0.000919372447,0.0010361251
0.75,2.08460085e-05,0.000273606245,0.00056475704,0.000795056456,0.000969409,0.00109536958
0.8,2.09485161e-05,0.000277359301,0.000585772697,0.000831188915,0.00101759036,0.00115284311
0.85,2.1045444e-05,0.000280270079,0.000604976427,0.000865475898,0.00106395425,0.00120857866
0.9,2.11375437e-05,0.000282591135,0.000622403096,0.000897957003,0.00110853733,0.00126260833
0.95,2.12254235e-05,0.000284499185,0.00063808208,0.00092867025,0.00115137517,0.00131496342
1.0,2.13095829e-05,0.00028611087,0.000652035866,0.000957651941,0.00119250231,0.00136567438
1.05,2.13904376e-05,0.000287503077,0.000664280813,0.000984936403,0.00123195224,0.00141477091
1.1,2.14683372e-05,0.000288727681,0.000674836143,0.00101055558,0.00126975742,0.00146228196
1.15,2.15435785e-05,0.000289820765,0.000683749642,0.00103453836,0.00130594924,0.00150823572
1.2,2.16164158e-05,0.000290808204,0.000691135495,0.00105690952,0.00134055797,0.00155265968
1.25,2.16870687e-05,0.000291709083,0.000697190048,0.00107768808,0.00137361271,0.00159558059
1.3,2.1755728e-05,0.00029253783,0.00070215838,0.00109688491,0.00140514121,0.00163702453
1.35,2.18225608e-05,0.000293305593,0.000706279518,0.00111449954,0.00143516967,0.00167701684
1.4,2.18877139e-05,0.000294021151,0.000709752208,0.00113051733,0.00146372243,0.00171558216
1.45,2.19513173e-05,0.000294691532,0.000712728152,0.00114490998,0.00149082144,0.00175274439
1.5,2.20134866e-05,0.000295322448,0.000715319074,0.00115764673,0.00151648555,0.00178852663
1.55,2.20743248e-05,0.000295918599,0.000717606676,0.00116872256,0.00154072931,0.00182295115
1.6,2.21339246e-05,0.000296483898,0.000719651153,0.00117819632,0.00156356135,0.00185603924
1.65,2.21923691e-05,0.000297021638,0.000721497484,0.00118621003,0.00158498195,0.00188781113
1.7,2.22497335e-05,0.000297534613,0.000723179835,0.00119296834,0.00160497994,0.00191828573
1.75,2.23060859e-05,0.000298025215,0.000724724595,0.00119869408,0.00162352921,0.00194748032
1.8,2.23614884e-05,0.000298495508,0.000726152473,0.0012035916,0.00164058683,0.00197541012
1.85,2.24159973e-05,0.000298947282,0.00072747997,0.00120783042,0.0016560968,0.00200208764
1.9,2.24696644e-05,0.000299382103,0.000728720409,0.00121154398,0.0016700055,0.0020275217
1.95,2.25225369e-05,0.000299801346,0.000729884687,0.00121483502,0.00168229087,0.00205171606
2.0,2.25746586e-05,0.000300206228,0.000730981812,0.00121778223,0.00169299439,0.00207466756
2.05,2.26260696e-05,0.000300597828,0.000732019315,0.00122044613,0.00170223332,0.00209636351
2.1,2.26768071e-05,0.000300977106,0.000733003545,0.00122287371,0.00171018252,0.0021167787
2.15,2.27269055e-05,0.000301344926,0.000733939903,0.00122510185,0.00171703928,0.00213587259
2.2,2.2776397e-05,0.000301702062,0.000734833018,0.00122715989,0.00172299266,0.00215358875
2.25,2.28253117e-05,0.000302049213,0.000735686888,0.00122907139,0.00172820701,0.00216986014
2.3,2.28736778e-05,0.000302387011,0.000736504986,0.00123085555,0.00173281756,0.00218462444
2.35,2.29215222e-05,0.000302716031,0.000737290348,0.00123252812,0.0017369325,0.00219784905
2.4,2.29688701e-05,0.000303036798,0.000738045645,0.00123410222,0.00174063743,0.00220955652
2.45,2.3015746e-05,0.000303349789,0.000738773232,0.00123558882,0.00174399999,0.00221983467
2.5,2.30621737e-05,0.000303655444,0.000739475205,0.00123699721,0.00174707387,0.00222882436
2.55,2.31081762e-05,0.000303954166,0.00074015343,0.00123833531,0.001749902,0.00223669335
2.6,2.31537765e-05,0.000304246327,0.000740809578,0.00123960991,0.001752519,0.00224361075
2.65,2.31989976e-05,0.000304532271,0.000741445151,0.00124082688,0.00175495306,0.00224973066
2.7,2.32438628e-05,0.00030481232,0.000742061504,0.00124199133,0.00175722734,0.00225518527
2.75,2.3288396e-05,0.000305086773,0.000742659863,0.00124310773,0.00175936107,0.0022600842
2.8,2.33326223e-05,0.000305355911,0.000743241342,0.00124418001,0.00176137031,0.00226451678
2.85,2.33765679e-05,0.00030562,0.000743806955,0.00124521163,0.00176326864,0.00226855535
2.9,2.34202607e-05,0.000305879293,0.00074435763,0.00124620569,0.00176506756,0.00227225849
2.95,2.34637306e-05,0.000306134036,0.000744894215,0.00124716494,0.00176677696,0.00227567383
3.0,2.350701e-05,0.000306384464,0.000745417494,0.00124809182,0.00176840533,0.0022788403
3.05,2.35501337e-05,0.000306630813,0.000745928187,0.00124898857,0.00176996005,0.00228178994
3.1,2.35931399e-05,0.000306873316,0.000746426964,0.00124985716,0.00177144757,0.00228454936
3.15,2.36360704e-05,0.000307112208,0.000746914448,0.00125069941,0.0017728735,0.0022871408
3.2,2.36789706e-05,0.000307347733,0.000747391225,0.00125151696,0.00177424285,0.00228958298
3.25,2.37218904e-05,0.000307580143,0.000747857846,0.0012523113,0.00177555999,0.00229189179
3.3,2.37648843e-05,0.000307809703,0.000748314835,0.00125308379,0.00177682887,0.0022940808
3.35,2.38080121e-05,0.000308036696,0.000748762699,0.00125383568,0.00177805296,0.00229616168
3.4,2.38513387e-05,0.000308261428,0.000749201927,0.00125456813,0.00177923542,0.00229814453
3.45,2.38949352e-05,0.000308484229,0.000749633005,0.0012552822,0.00178037906,0.00230003812
3.5,2.39388788e-05,0.000308705459,0.000750056415,0.00125597887,0.00178148644,0.00230185015
3.55,2.39832533e-05,0.000308925515,0.000750472648,0.00125665907,0.00178255986,0.00230358737
3.6,2.40281494e-05,0.00030914483,0.00075088221,0.00125732366,0.00178360142,0.00230525573
3.65,2.40736653e-05,0.000309363884,0.000751285629,0.00125797346,0.00178461304,0.00230686055
3.7,2.41199066e-05,0.000309583204,0.000751683465,0.00125860924,0.00178559646,0.00230840653
3.75,2.41669869e-05,0.000309803371,0.000752076318,0.00125923178,0.0017865533,0.0023098979
3.8,2.42150281e-05,0.000310025023,0.000752464837,0.0012598418,0.00178748504,0.00231133845
3.85,2.42641604e-05,0.000310248864,0.000752849734,0.00126044004,0.00178839304,0.00231273159
3.9,2.4314523e-05,0.000310475661,0.000753231787,0.00126102724,0.00178927858,0.00231408041
3.95,2.43662639e-05,0.000310706258,0.000753611857,0.00126160416,0.00179014284,0.00231538772
4.0,2.44195403e-05,0.000310941573,0.000753990895,0.00126217158,0.00179098697,0.00231665605
4.05,2.44745189e-05,0.000311182604,0.000754369954,0.00126273034,0.00179181201,0.00231788773
4.1,2.45313757e-05,0.000311430437,0.000754750202,0.00126328134,0.001792619,0.0023190849
4.15,2.45902965e-05,0.000311686245,0.00075513293,0.00126382552,0.00179340893,0.0023202495
4.2,2.46514772e-05,0.000311951295,0.000755519566,0.00126436395,0.00179418279,0.00232138335
4.25,2.47151231e-05,0.00031222695,0.000755911686,0.00126489779,0.00179494155,0.00232248811
4.3,2.47814498e-05,0.000312514673,0.000756311024,0.0012654283,0.00179568622,0.00232356534
4.35,2.48506829e-05,0.00031281603,0.000756719483,0.00126595692,0.00179641784,0.00232461651
4.4,2.4923058e-05,0.000313132692,0.000757139148,0.00126648521,0.00179713748,0.00232564297
4.45,2.49988209e-05,0.00031346644,0.000757572293,0.00126701493,0.00179784631,0.00232664606
4.5,2.50782273e-05,0.000313819164,0.000758021396,0.00126754803,0.00179854558,0.00232762703
4.55,2.51615431e-05,0.000314192868,0.000758489143,0.00126808666,0.00179923663,0.00232858712
4.6,2.52490442e-05,0.000314589668,0.000758978441,0.00126863321,0.00179992098,0.00232952754
4.65,2.53410164e-05,0.000315011799,0.000759492427,0.00126919033,0.00180060027,0.00233044953
4.7,2.54377552e-05,0.00031546161,0.000760034474,0.00126976093,0.00180127634,0.00233135434
4.75,2.55395662e-05,0.000315941568,0.000760608201,0.00127034821,0.00180195122,0.00233224327
4.8,2.56467643e-05,0.00031645426,0.000761217477,0.00127095568,0.0018026272,0.00233311771
4.85,2.57596742e-05,0.000317002391,0.00076186643,0.00127158715,0.0018033068,0.00233397913
4.9,2.58786296e-05,0.000317588782,0.000762559452,0.0012722468,0.00180399284,0.00233482912
4.95,2.60039737e-05,0.000318216376,0.000763301204,0.00127293916,0.00180468846,0.00233566942
5.0,2.61360585e-05,0.00031888823,0.000764096619,0.00127366911,0.00180539711,0.00233650198
5.05,2.62752451e-05,0.000319607521,0.000764950909,0.00127444194,0.00180612263,0.00233732891
5.1,2.6421903e-05,0.00032037754,0.000765869563,0.00127526332,0.00180686924,0.00233815261
5.15,2.65764103e-05,0.000321201693,0.000766858354,0.00127613935,0.00180764159,0.00233897571
5.2,2.67391531e-05,0.0003220835,0.000767923337,0.00127707654,0.00180844475,0.00233980118
5.25,2.69105258e-05,0.000323026591,0.000769070853,0.00127808183,0.00180928426,0.0023406323
5.3,2.70909302e-05,0.000324034706,0.000770307525,0.00127916261,0.00181016617,0.00234147274
5.35,2.7280776e-05,0.000325111693,0.000771640261,0.00128032673,0.00181109703,0.00234232659
5.4,2.74804799e-05,0.000326261506,0.000773076254,0.00128158248,0.00181208391,0.00234319836
5.45,2.76904657e-05,0.000327488199,0.000774622973,0.00128293862,0.00181313444,0.00234409304
5.5,2.79111641e-05,0.000328795929,0.000776288172,0.00128440437,0.00181425685,0.00234501615
5.55,2.81430122e-05,0.000330188949,0.000778079875,0.00128598945,0.00181545991,0.00234597373
5.6,2.83864533e-05,0.000331671609,0.000780006381,0.00128770401,0.00181675304,0.0023469724
5.65,2.86419367e-05,0.000333248347,0.000782076258,0.00128955872,0.00181814624,0.00234801941
5.7,2.89099177e-05,0.000334923692,0.000784298336,0.00129156469,0.00181965018,0.00234912262
5.75,2.91908568e-05,0.000336702259,0.000786681706,0.00129373351,0.00182127615,0.00235029057
5.8,2.94852196e-05,0.000338588745,0.000789235709,0.00129607726,0.0018230361,0.0023515325
5.85,2.97934769e-05,0.000340587926,0.000791969938,0.00129860846,0.00182494262,0.00235285835
5.9,3.0116104e-05,0.000342704653,0.000794894225,0.00130134013,0.00182700899,0.00235427882
5.95,3.04535806e-05,0.00034494385,0.000798018638,0.00130428571,0.00182924916,0.00235580538
6.0,3.08063905e-05,0.000347310509,0.000801353471,0.00130745913,0.00183167773,0.00235745027
6.05,3.11750216e-05,0.00034980969,0.000804909243,0.00131087472,0.00183431,0.00235922654
6.1,3.1559965e-05,0.000352446512,0.000808696685,0.0013145473,0.00183716193,0.00236114807
6.15,3.19617155e-05,0.000355226154,0.000812726732,0.00131849208,0.00184025014,0.00236322956
6.2,3.23807707e-05,0.000358153849,0.000817010522,0.00132272472,0.00184359194,0.00236548657
6.25,3.28176313e-05,0.000361234882,0.000821559378,0.00132726126,0.00184720529,0.00236793551
6.3,3.32728004e-05,0.000364474585,0.000826384811,0.00133211816,0.00185110882,0.00237059364
6.35,3.37467834e-05,0.000367878336,0.000831498502,0.00133731227,0.00185532178,0.00237347912
6.4,3.42400881e-05,0.000371451553,0.000836912298,0.00134286082,0.00185986408,0.00237661094
6.45,3.47532238e-05,0.00037519969,0.000842638206,0.00134878138,0.00186475626,0.00238000901
6.5,3.52867016e-05,0.000379128237,0.000848688378,0.0013550919,0.00187001947,0.00238369408
6.55,3.58410339e-05,0.000383242715,0.000855075108,0.00136181067,0.00187567547,0.00238768777
6.6,3.64167344e-05,0.000387548669,0.000861810823,0.00136895629,0.00188174661,0.00239201257
