vds,vb1,vb2,vb3,vb4,vb5,vb6
0.0,-0.0,-0.0,-0.0,-0.0,-0.0,-0.0
0.05,3.14518407e-07,1.31147735e-06,2.15377981e-06,2.82531094e-06,3.33103448e-06,3.69006763e-06
0.1,5.64424883e-07,2.55365205e-06,4.24099482e-06,5.58859628e-06,6.60552215e-06,7.32941808e-06
0.15,7.50684082e-07,3.72688957e-06,6.26199968e-06,8.29017297e-06,9.82373225e-06,1.09182727e-05
0.2,8.75627513e-07,4.83155383e-06,8.21714642e-06,1.09303557e-05,1.29859322e-05,1.44568515e-05
0.25,9.4596824e-07,5.86800772e-06,1.01067846e-05,1.35094569e-05,1.60923877e-05,1.79453732e-05
0.3,9.77467699e-07,6.8366137e-06,1.19312613e-05,1.60277871e-05,1.91433628e-05,2.13840551e-05
0.35,9.90045369e-07,7.73773476e-06,1.36909211e-05,1.84856544e-05,2.21391199e-05,2.47731134e-05
0.4,9.95715647e-07,8.57173586e-06,1.53861063e-05,2.0883365e-05,2.50799196e-05,2.81127631e-05
0.45,9.98891765e-07,9.33898632e-06,1.70171568e-05,2.32212229e-05,2.79660209e-05,3.14032178e-05
0.5,1.00102883e-06,1.00398636e-05,1.858441e-05,2.54995301e-05,3.07976812e-05,3.46446898e-05
0.55,1.00266004e-06,1.06747601e-05,2.00882011e-05,2.77185864e-05,3.35751563e-05,3.78373904e-05
0.6,1.00401132e-06,1.12440948e-05,2.15288627e-05,2.98786896e-05,3.62987002e-05,4.09815295e-05
0.65,1.00519157e-06,1.17483354e-05,2.29067256e-05,3.19801355e-05,3.89685656e-05,4.40773159e-05
0.7,1.00625902e-06,1.21880408e-05,2.4222118e-05,3.40232178e-05,4.15850031e-05,4.71249571e-05
0.75,1.00724754e-06,1.25639463e-05,2.54753659e-05,3.6008228e-05,4.41482623e-05,5.01246594e-05
0.8,1.00817819e-06,1.28771379e-05,2.66667932e-05,3.79354559e-05,4.66585907e-05,5.3076628e-05
0.85,1.00906479e-06,1.31294071e-05,2.77967219e-05,3.9805189e-05,4.91162346e-05,5.59810669e-05
0.9,1.00991683e-06,1.332392e-05,2.88654719e-05,4.16177127e-05,5.15214384e-05,5.88381787e-05
0.95,1.01074108e-06,1.34662183e-05,2.98733614e-05,4.33733105e-05,5.38744452e-05,6.16481652e-05
1.0,1.01154251e-06,1.3564967e-05,3.08207073e-05,4.50722637e-05,5.61754963e-05,6.44112267e-05
1.05,1.01232489e-06,1.36311361e-05,3.17078256e-05,4.67148516e-05,5.84248317e-05,6.71275625e-05
1.1,1.01309111e-06,1.36754127e-05,3.25350325e-05,4.83013513e-05,6.06226897e-05,6.97973708e-05
1.15,1.01384346e-06,1.37059728e-05,3.33026459e-05,4.98320378e-05,6.27693069e-05,7.24208485e-05
1.2,1.01458378e-06,1.37281097e-05,3.40109883e-05,5.13071838e-05,6.48649187e-05,7.49981914e-05
1.25,1.01531354e-06,1.37449828e-05,3.46603921e-05,5.27270597e-05,6.69097585e-05,7.75295943e-05
1.3,1.01603399e-06,1.37584451e-05,3.5251209e-05,5.40919335e-05,6.89040586e-05,8.00152508e-05
1.35,1.01674615e-06,1.37696034e-05,3.57838278e-05,5.54020709e-05,7.08480493e-05,8.24553531e-05
1.4,1.01745088e-06,1.37791416e-05,3.62587084e-05,5.66577346e-05,7.27419596e-05,8.48500927e-05
1.45,1.01814891e-06,1.37874984e-05,3.66764456e-05,5.78591849e-05,7.45860168e-05,8.71996597e-05
1.5,1.01884087e-06,1.37949658e-05,3.70378904e-05,5.90066788e-05,7.63804465e-05,8.95042432e-05
1.55,1.01952732e-06,1.38017455e-05,3.73443688e-05,6.01004699e-05,7.81254727e-05,9.1764031e-05
1.6,1.02020871e-06,1.38079803e-05,3.75980406e-05,6.11408083e-05,7.98213178e-05,9.397921e-05
1.65,1.02088548e-06,1.3813775e-05,3.78023836e-05,6.21279399e-05,8.14682024e-05,9.61499659e-05
1.7,1.02155798e-06,1.38192076e-05,3.79626047e-05,6.30621061e-05,8.30663452e-05,9.82764832e-05
1.75,1.02222653e-06,1.3824338e-05,3.80855726e-05,6.3943543e-05,8.46159631e-05,0.000100358945
1.8,1.02289143e-06,1.38292127e-05,3.81790066e-05,6.4772481e-05,8.61172713e-05,0.000102397535
1.85,1.02355293e-06,1.38338687e-05,3.82502695e-05,6.55491443e-05,8.75704826e-05,0.000104392432
1.9,1.02421127e-06,1.38383354e-05,3.83054697e-05,6.62737506e-05,8.89758078e-05,0.000106343818
1.95,1.02486665e-06,1.3842637e-05,3.83491961e-05,6.69465122e-05,9.03334554e-05,0.000108251871
2.0,1.02551926e-06,1.38467935e-05,3.83847024e-05,6.75676385e-05,9.16436312e-05,0.000110116768
2.05,1.02616928e-06,1.38508214e-05,3.84142384e-05,6.81373437e-05,9.29065384e-05,0.000111938687
2.1,1.02681686e-06,1.38547345e-05,3.84393545e-05,6.86558622e-05,9.41223771e-05,0.000113717802
2.15,1.02746216e-06,1.38585448e-05,3.84611293e-05,6.91234822e-05,9.52913437e-05,0.000115454287
2.2,1.02810533e-06,1.38622623e-05,3.8480325e-05,6.9540609e-05,9.64136309e-05,0.000117148316
2.25,1.02874649e-06,1.38658957e-05,3.84974911e-05,6.99078832e-05,9.74894269e-05,0.000118800058
2.3,1.02938578e-06,1.38694527e-05,3.85130309e-05,7.02263747e-05,9.85189145e-05,0.000120409685
2.35,1.03002334e-06,1.38729397e-05,3.85272462e-05,7.04978661e-05,9.95022702e-05,0.000121977365
2.4,1.03065931e-06,1.38763625e-05,3.85403672e-05,7.07251703e-05,0.000100439664,0.000123503265
2.45,1.03129385e-06,1.38797263e-05,3.8552572e-05,7.09123335e-05,0.000101331255,0.000124987549
2.5,1.03192713e-06,1.38830356e-05,3.8564001e-05,7.10645231e-05,0.000102177195,0.000126430382
2.55,1.03255932e-06,1.38862944e-05,3.85747659e-05,7.11875339e-05,0.00010297762,0.000127831926
2.6,1.03319066e-06,1.38895063e-05,3.85849571e-05,7.12871017e-05,0.000103732655,0.000129192341
2.65,1.03382139e-06,1.38926746e-05,3.85946484e-05,7.13683347e-05,0.000104442403,0.000130511783
2.7,1.03445182e-06,1.38958021e-05,3.86039009e-05,7.14354347e-05,0.000105106952,0.000131790409
2.75,1.03508229e-06,1.38988916e-05,3.86127655e-05,7.14916812e-05,0.000105726366,0.00013302837
2.8,1.03571321e-06,1.39019455e-05,3.8621285e-05,7.15395574e-05,0.000106300694,0.000134225816
2.85,1.03634508e-06,1.39049661e-05,3.86294957e-05,7.15809187e-05,0.000106829971,0.000135382894
2.9,1.03697845e-06,1.39079555e-05,3.86374287e-05,7.16171486e-05,0.000107314249,0.000136499744
2.95,1.037614e-06,1.39109157e-05,3.86451106e-05,7.16492835e-05,0.000107753635,0.000137576505
3.0,1.03825251e-06,1.39138487e-05,3.86525648e-05,7.16781072e-05,0.000108148382,0.000138613308
3.05,1.03889486e-06,1.39167564e-05,3.86598112e-05,7.1704219e-05,0.000108499026,0.000139610278
3.1,1.03954211e-06,1.3919641e-05,3.86668677e-05,7.17280825e-05,0.00010880659,0.000140567535
3.15,1.04019544e-06,1.39225044e-05,3.86737497e-05,7.17500614e-05,0.000109072819,0.000141485185
3.2,1.04085619e-06,1.39253489e-05,3.86804711e-05,7.17704436e-05,0.000109300367,0.000142363327
3.25,1.04152592e-06,1.39281773e-05,3.86870441e-05,7.17894605e-05,0.000109492817,0.000143202046
3.3,1.04220634e-06,1.39309922e-05,3.86934795e-05,7.18072993e-05,0.000109654475,0.00014400141
3.35,1.04289941e-06,1.3933797e-05,3.86997873e-05,7.18241138e-05,0.000109789964,0.000144761469
3.4,1.0436073e-06,1.39365955e-05,3.87059763e-05,7.1840031e-05,0.000109903785,0.000145482249
3.45,1.04433242e-06,1.39393924e-05,3.87120545e-05,7.18551568e-05,0.000109999989,0.000146163749
3.5,1.04507744e-06,1.39421928e-05,3.87180292e-05,7.18695804e-05,0.000110082016,0.000146805938
3.55,1.0458453e-06,1.3945003e-05,3.87239071e-05,7.18833775e-05,0.000110152668,0.000147408749
3.6,1.04663923e-06,1.39478303e-05,3.87296946e-05,7.18966125e-05,0.000110214177,0.000147972083
3.65,1.04746277e-06,1.39506831e-05,3.87353977e-05,7.1909341e-05,0.000110268296,0.000148495813
3.7,1.04831975e-06,1.39535715e-05,3.87410219e-05,7.1921611e-05,0.000110316395,0.000148979803
3.75,1.04921433e-06,1.39565068e-05,3.87465731e-05,7.19334641e-05,0.000110359546,0.000149423947
3.8,1.05015103e-06,1.39595024e-05,3.87520568e-05,7.19449368e-05,0.000110398593,0.000149828247
3.85,1.05113469e-06,1.39625734e-05,3.87574791e-05,7.19560612e-05,0.000110434204,0.000150192921
3.9,1.05217052e-06,1.39657372e-05,3.87628462e-05,7.19668657e-05,0.000110466911,0.000150518569
3.95,1.0532641e-06,1.39690134e-05,3.8768165e-05,7.19773753e-05,0.000110497144,0.000150806348
4.0,1.05442137e-06,1.39724242e-05,3.87734435e-05,7.19876124e-05,0.000110525251,0.000151058125
4.05,1.05564869e-06,1.39759945e-05,3.87786904e-05,7.1997597e-05,0.000110551516,0.000151276518
4.1,1.05695276e-06,1.39797522e-05,3.8783916e-05,7.20073472e-05,0.000110576176,0.000151464788
4.15,1.05834072e-06,1.39837282e-05,3.87891323e-05,7.20168791e-05,0.000110599427,0.000151626589
4.2,1.05982008e-06,1.39879569e-05,3.87943535e-05,7.20262076e-05,0.000110621433,0.000151765669
4.25,1.06139877e-06,1.3992476e-05,3.87995958e-05,7.20353461e-05,0.000110642334,0.000151885587
4.3,1.06308512e-06,1.39973271e-05,3.88048787e-05,7.20443073e-05,0.000110662247,0.000151989538
4.35,1.06488788e-06,1.40025556e-05,3.88102246e-05,7.20531027e-05,0.000110681274,0.00015208027
4.4,1.0668162e-06,1.40082109e-05,3.88156599e-05,7.20617436e-05,0.000110699502,0.000152160077
4.45,1.06887963e-06,1.40143466e-05,3.8821215e-05,7.20702407e-05,0.000110717008,0.000152230841
4.5,1.07108815e-06,1.40210207e-05,3.88269251e-05,7.20786047e-05,0.000110733856,0.000152294088
4.55,1.07345214e-06,1.40282956e-05,3.88328306e-05,7.20868466e-05,0.000110750105,0.000152351054
4.6,1.07598238e-06,1.40362386e-05,3.88389775e-05,7.20949777e-05,0.000110765805,0.000152402734
4.65,1.07869004e-06,1.40449214e-05,3.88454183e-05,7.21030105e-05,0.000110781002,0.000152449937
4.7,1.08158672e-06,1.40544208e-05,3.88522122e-05,7.21109584e-05,0.000110795734,0.000152493321
4.75,1.08468439e-06,1.40648185e-05,3.88594259e-05,7.21188368e-05,0.000110810038,0.000152533421
4.8,1.0879954e-06,1.40762011e-05,3.88671338e-05,7.21266633e-05,0.000110823944,0.000152570683
4.85,1.0915325e-06,1.40886604e-05,3.88754191e-05,7.21344583e-05,0.000110837483,0.000152605471
4.9,1.09530879e-06,1.41022935e-05,3.88843738e-05,7.21422454e-05,0.000110850678,0.000152638094
4.95,1.09933777e-06,1.41172024e-05,3.88940994e-05,7.21500525e-05,0.000110863555,0.000152668807
5.0,1.10363327e-06,1.41334946e-05,3.89047077e-05,7.21579122e-05,0.000110876134,0.000152697828
5.05,1.10820948e-06,1.41512827e-05,3.89163209e-05,7.21658625e-05,0.000110888434,0.000152725341
5.1,1.11308093e-06,1.41706847e-05,3.89290722e-05,7.2173948e-05,0.000110900475,0.000152751506
5.15,1.11826248e-06,1.41918236e-05,3.89431065e-05,7.21822205e-05,0.000110912274,0.000152776458
5.2,1.12376932e-06,1.4214828e-05,3.89585804e-05,7.21907396e-05,0.000110923847,0.000152800315
5.25,1.12961694e-06,1.42398314e-05,3.89756628e-05,7.21995743e-05,0.000110935212,0.000152823179
5.3,1.13582114e-06,1.42669726e-05,3.89945355e-05,7.22088037e-05,0.000110946384,0.000152845139
5.35,1.14239802e-06,1.42963956e-05,3.90153932e-05,7.22185175e-05,0.000110957383,0.000152866275
5.4,1.14936393e-06,1.43282492e-05,3.90384439e-05,7.22288179e-05,0.000110968226,0.000152886655
5.45,1.15673552e-06,1.43626874e-05,3.90639091e-05,7.22398198e-05,0.000110978934,0.00015290634
5.5,1.16452969e-06,1.43998691e-05,3.90920245e-05,7.22516525e-05,0.000110989531,0.000152925386
5.55,1.17276356e-06,1.4439958e-05,3.91230393e-05,7.22644601e-05,0.000111000043,0.00015294384
5.6,1.18145453e-06,1.44831224e-05,3.91572175e-05,7.22784029e-05,0.0001110105,0.000152961747
5.65,1.1906202e-06,1.45295354e-05,3.91948369e-05,7.22936584e-05,0.000111020938,0.000152979145
5.7,1.20027836e-06,1.45793744e-05,3.923619e-05,7.23104222e-05,0.000111031399,0.000152996071
5.75,1.21044704e-06,1.46328213e-05,3.92815839e-05,7.23289087e-05,0.000111041932,0.000153012555
5.8,1.22114444e-06,1.46900624e-05,3.93313399e-05,7.23493523e-05,0.000111052593,0.000153028629
5.85,1.23238892e-06,1.47512879e-05,3.93857941e-05,7.23720082e-05,0.000111063449,0.000153044318
5.9,1.24419903e-06,1.48166921e-05,3.94452969e-05,7.23971534e-05,0.000111074578,0.000153059649
5.95,1.25659348e-06,1.48864732e-05,3.9510213e-05,7.24250869e-05,0.000111086069,0.000153074646
6.0,1.26959108e-06,1.49608331e-05,3.95809217e-05,7.2456131e-05,0.000111098026,0.000153089332
6.05,1.28321081e-06,1.50399772e-05,3.96578161e-05,7.24906319e-05,0.000111110567,0.00015310373
6.1,1.29747175e-06,1.51241143e-05,3.97413036e-05,7.25289597e-05,0.000111123828,0.000153117863
6.15,1.3123931e-06,1.52134567e-05,3.98318052e-05,7.257151e-05,0.000111137961,0.000153131757
6.2,1.32799414e-06,1.53082196e-05,3.99297555e-05,7.26187032e-05,0.000111153139,0.000153145436
6.25,1.34429426e-06,1.54086212e-05,4.00356025e-05,7.2670986e-05,0.000111169558,0.00015315893
6.3,1.36131291e-06,1.55148825e-05,4.01498073e-05,7.27288308e-05,0.000111187434,0.000153172271
6.35,1.3790696e-06,1.56272272e-05,4.02728436e-05,7.27927367e-05,0.000111207009,0.000153185496
6.4,1.3975839e-06,1.57458816e-05,4.04051977e-05,7.28632293e-05,0.000111228551,0.000153198646
6.45,1.41687543e-06,1.5871074e-05,4.05473682e-05,7.2940861e-05,0.000111252355,0.000153211772
6.5,1.43696385e-06,1.60030352e-05,4.06998654e-05,7.30262113e-05,0.000111278744,0.000153224931
6.55,1.45786882e-06,1.61419978e-05,4.08632109e-05,7.31198861e-05,0.000111308075,0.00015323819
6.6,1.47961004e-06,1.62881965e-05,4.10379377e-05,7.32225187e-05,0.000111340732,0.000153251629
