vds,vb1,vb2,vb3,vb4,vb5,vb6
0.0,-0.0,-0.0,-0.0,-0.0,-0.0,-0.0
0.05,5.6791956e-07,2.12804555e-06,3.35470636e-06,4.30642074e-06,5.01778771e-06,5.52716747e-06
0.1,1.01185791e-06,4.11487262e-06,6.56208189e-06,8.46589888e-06,9.89412219e-06,1.09216533e-05
0.15,1.335964e-06,5.96363604e-06,9.62541295e-06,1.2481542e-05,1.46317711e-05,1.61858288e-05
0.2,1.5481452e-06,7.6774016e-06,1.25478885e-05,1.63563703e-05,1.923343e-05,2.13220091e-05
0.25,1.66762251e-06,9.25915083e-06,1.53326029e-05,2.00933188e-05,2.37017245e-05,2.63324543e-05
0.3,1.72953987e-06,1.07117868e-05,1.7982559e-05,2.369524e-05,2.80392118e-05,3.12193709e-05
0.35,1.76575606e-06,1.20381418e-05,2.05006706e-05,2.7164906e-05,3.22483825e-05,3.59849131e-05
0.4,1.79117266e-06,1.32409878e-05,2.28897652e-05,3.05050103e-05,3.6331662e-05,4.06311837e-05
0.45,1.81117995e-06,1.43230533e-05,2.51525869e-05,3.371817e-05,4.02914121e-05,4.51602352e-05
0.5,1.82794083e-06,1.52870509e-05,2.72917992e-05,3.68069279e-05,4.41299322e-05,4.95740707e-05
0.55,1.84250461e-06,1.61357314e-05,2.9309988e-05,3.97737551e-05,4.78494611e-05,5.3874645e-05
0.6,1.85546439e-06,1.68719936e-05,3.12096636e-05,4.2621053e-05,5.14521783e-05,5.80638657e-05
0.65,1.86719305e-06,1.7499132e-05,3.2993263e-05,4.53511559e-05,5.49402062e-05,6.2143594e-05
0.7,1.87794293e-06,1.80213983e-05,3.46631503e-05,4.79663334e-05,5.83156113e-05,6.6115646e-05
0.75,1.88789397e-06,1.84451684e-05,3.62216165e-05,5.04687927e-05,6.15804065e-05,6.99817939e-05
0.8,1.89717966e-06,1.87806846e-05,3.76708754e-05,5.28606807e-05,6.47365529e-05,7.37437673e-05
0.85,1.90590207e-06,1.90428536e-05,3.90130561e-05,5.51440853e-05,6.77859616e-05,7.74032542e-05
0.9,1.91414115e-06,1.92488994e-05,4.02501889e-05,5.73210374e-05,7.07304956e-05,8.09619028e-05
0.95,1.92196079e-06,1.94143075e-05,4.13841813e-05,5.93935102e-05,7.35719716e-05,8.44213225e-05
1.0,1.92941292e-06,1.95507014e-05,4.24167804e-05,6.13634189e-05,7.6312162e-05,8.77830856e-05
1.05,1.93654031e-06,1.96660732e-05,4.33495262e-05,6.32326175e-05,7.8952796e-05,9.10487283e-05
1.1,1.94337867e-06,1.97658038e-05,4.41837211e-05,6.5002894e-05,8.14955609e-05,9.42197524e-05
1.15,1.9499581e-06,1.98535619e-05,4.4920524e-05,6.6675961e-05,8.39421029e-05,9.72976267e-05
1.2,1.95630423e-06,1.99319128e-05,4.55614276e-05,6.82534407e-05,8.62940278e-05,0.000100283788
1.25,1.96243905e-06,2.00027013e-05,4.61094539e-05,6.97368412e-05,8.85529001e-05,0.000103179642
1.3,1.96838159e-06,2.00672901e-05,4.65708452e-05,7.11275189e-05,9.07202424e-05,0.000105986564
1.35,1.97414844e-06,2.01267102e-05,4.69558285e-05,7.24266211e-05,9.27975325e-05,0.000108705903
1.4,1.97975411e-06,2.01817588e-05,4.7277216e-05,7.36349994e-05,9.47861998e-05,0.000111338977
1.45,1.98521141e-06,2.02330641e-05,4.75478478e-05,7.47530903e-05,9.66876186e-05,0.000113887077
1.5,1.99053168e-06,2.02811291e-05,4.7778768e-05,7.57807753e-05,9.85030982e-05,0.000116351466
1.55,1.995725e-06,2.03263627e-05,4.79786806e-05,7.67172894e-05,0.000100233868,0.00011873338
1.6,2.0008004e-06,2.03691015e-05,4.81541731e-05,7.7561372e-05,0.000101881057,0.000121034024
1.65,2.00576598e-06,2.04096258e-05,4.83101716e-05,7.83119859e-05,0.000103445658,0.000123254573
1.7,2.01062903e-06,2.04481714e-05,4.84503726e-05,7.89697991e-05,0.000104928479,0.00012539617
1.75,2.01539614e-06,2.04849387e-05,4.85775795e-05,7.95388796e-05,0.000106330076,0.000127459919
1.8,2.02007332e-06,2.05200991e-05,4.86939486e-05,8.00272941e-05,0.000107650646,0.000129446883
1.85,2.02466599e-06,2.05538005e-05,4.8801163e-05,8.04459247e-05,0.000108889893,0.000131358075
1.9,2.02917913e-06,2.05861714e-05,4.89005555e-05,8.08063907e-05,0.000110046867,0.000133194443
1.95,2.03361729e-06,2.06173241e-05,4.89931961e-05,8.11193866e-05,0.000111119832,0.00013495686
2.0,2.03798464e-06,2.06473572e-05,4.90799549e-05,8.13939223e-05,0.00011210631,0.000136646095
2.05,2.04228503e-06,2.0676358e-05,4.91615476e-05,8.16372354e-05,0.000113003527,0.000138262782
2.1,2.04652201e-06,2.07044038e-05,4.92385692e-05,8.18550159e-05,0.000113809503,0.00013980737
2.15,2.05069885e-06,2.07315638e-05,4.93115194e-05,8.20517099e-05,0.000114524606,0.000141280057
2.2,2.05481861e-06,2.07578998e-05,4.93808212e-05,8.22308012e-05,0.000115152764,0.000142680696
2.25,2.05888413e-06,2.07834675e-05,4.9446836e-05,8.23950393e-05,0.000115701451,0.000144008666
2.3,2.06289807e-06,2.08083169e-05,4.95098747e-05,8.25466151e-05,0.000116180419,0.000145262732
2.35,2.06686294e-06,2.08324935e-05,4.95702063e-05,8.26872927e-05,0.00011660002,0.0001464409
2.4,2.07078111e-06,2.08560387e-05,4.96280656e-05,8.28185076e-05,0.000116969947,0.000147540381
2.45,2.07465484e-06,2.08789901e-05,4.96836583e-05,8.29414397e-05,0.000117298604,0.000148557793
2.5,2.0784863e-06,2.09013819e-05,4.97371656e-05,8.30570684e-05,0.00011759297,0.000149489821
2.55,2.0822776e-06,2.09232458e-05,4.9788748e-05,8.31662141e-05,0.000117858714,0.000150334356
2.6,2.0860308e-06,2.09446106e-05,4.98385483e-05,8.32695699e-05,0.000118100401,0.000151091783
2.65,2.08974794e-06,2.09655032e-05,4.98866941e-05,8.33677259e-05,0.000118321704,0.000151765733
2.7,2.09343109e-06,2.09859482e-05,4.99332999e-05,8.34611881e-05,0.000118525586,0.000152362822
2.75,2.09708233e-06,2.10059686e-05,4.99784688e-05,8.35503937e-05,0.000118714459,0.000152891549
2.8,2.10070381e-06,2.10255859e-05,5.00222937e-05,8.36357224e-05,0.000118890295,0.000153360997
2.85,2.10429777e-06,2.10448201e-05,5.00648593e-05,8.3717506e-05,0.000119054724,0.000153779835
2.9,2.10786657e-06,2.10636903e-05,5.01062421e-05,8.37960363e-05,0.0001192091,0.00015415578
2.95,2.11141273e-06,2.10822144e-05,5.01465123e-05,8.38715707e-05,0.000119354561,0.000154495421
3.0,2.11493893e-06,2.11004098e-05,5.01857338e-05,8.39443378e-05,0.000119492069,0.000154804259
3.05,2.11844808e-06,2.11182932e-05,5.02239655e-05,8.40145411e-05,0.000119622443,0.00015508683
3.1,2.12194334e-06,2.1135881e-05,5.02612616e-05,8.40823628e-05,0.000119746384,0.000155346868
3.15,2.12542815e-06,2.11531896e-05,5.0297672e-05,8.41479666e-05,0.0001198645,0.000155587442
3.2,2.12890625e-06,2.11702354e-05,5.03332433e-05,8.42115e-05,0.000119977317,0.00015581109
3.25,2.13238175e-06,2.1187035e-05,5.03680187e-05,8.42730963e-05,0.000120085294,0.000156019921
3.3,2.13585916e-06,2.12036057e-05,5.04020388e-05,8.43328765e-05,0.000120188835,0.000156215695
3.35,2.13934337e-06,2.12199658e-05,5.04353419e-05,8.43909509e-05,0.000120288296,0.000156399897
3.4,2.14283978e-06,2.12361343e-05,5.04679646e-05,8.444742e-05,0.000120383992,0.00015657378
3.45,2.14635424e-06,2.12521319e-05,5.04999417e-05,8.4502376e-05,0.000120476205,0.000156738416
3.5,2.14989314e-06,2.12679809e-05,5.05313075e-05,8.45559034e-05,0.000120565185,0.000156894724
3.55,2.15346343e-06,2.12837053e-05,5.05620953e-05,8.46080804e-05,0.000120651157,0.000157043495
3.6,2.15707266e-06,2.12993316e-05,5.05923385e-05,8.46589792e-05,0.000120734324,0.000157185419
3.65,2.16072898e-06,2.1314889e-05,5.06220711e-05,8.4708667e-05,0.00012081487,0.000157321095
3.7,2.16444122e-06,2.13304093e-05,5.06513276e-05,8.47572066e-05,0.000120892961,0.000157451052
3.75,2.16821886e-06,2.13459277e-05,5.06801444e-05,8.48046573e-05,0.000120968746,0.000157575753
3.8,2.17207213e-06,2.13614829e-05,5.07085598e-05,8.48510751e-05,0.000121042365,0.00015769561
3.85,2.17601194e-06,2.13771175e-05,5.07366146e-05,8.48965138e-05,0.000121113943,0.000157810989
3.9,2.18005e-06,2.13928784e-05,5.07643531e-05,8.49410255e-05,0.000121183596,0.000157922217
3.95,2.18419879e-06,2.14088168e-05,5.07918235e-05,8.49846613e-05,0.00012125143,0.000158029586
4.0,2.18847157e-06,2.1424989e-05,5.08190786e-05,8.50274718e-05,0.000121317543,0.00015813336
4.05,2.19288244e-06,2.14414564e-05,5.08461766e-05,8.50695086e-05,0.000121382028,0.000158233777
4.1,2.19744632e-06,2.14582857e-05,5.08731818e-05,8.51108243e-05,0.000121444969,0.000158331052
4.15,2.20217898e-06,2.14755496e-05,5.09001652e-05,8.51514736e-05,0.000121506446,0.00015842538
4.2,2.20709705e-06,2.14933267e-05,5.09272057e-05,8.51915147e-05,0.000121566535,0.00015851694
4.25,2.21221804e-06,2.1511702e-05,5.09543902e-05,8.52310094e-05,0.000121625309,0.000158605894
4.3,2.21756032e-06,2.15307669e-05,5.0981815e-05,8.52700251e-05,0.000121682839,0.000158692392
4.35,2.22314315e-06,2.15506199e-05,5.1009586e-05,8.53086349e-05,0.000121739191,0.000158776571
4.4,2.22898669e-06,2.15713661e-05,5.103782e-05,8.53469196e-05,0.000121794436,0.000158858558
4.45,2.23511197e-06,2.15931182e-05,5.1066645e-05,8.5384968e-05,0.00012184864,0.000158938469
4.5,2.24154093e-06,2.16159961e-05,5.10962014e-05,8.54228789e-05,0.000121901875,0.000159016415
4.55,2.24829639e-06,2.16401274e-05,5.1126642e-05,8.54607618e-05,0.000121954213,0.000159092497
4.6,2.25540206e-06,2.16656473e-05,5.11581336e-05,8.54987382e-05,0.000122005732,0.000159166813
4.65,2.26288252e-06,2.16926989e-05,5.11908569e-05,8.5536943e-05,0.000122056514,0.000159239455
4.7,2.27076323e-06,2.17214333e-05,5.12250075e-05,8.55755258e-05,0.000122106649,0.00015931051
4.75,2.27907053e-06,2.17520096e-05,5.12607963e-05,8.56146521e-05,0.000122156234,0.000159380065
4.8,2.28783159e-06,2.17845949e-05,5.12984504e-05,8.56545045e-05,0.000122205378,0.000159448205
4.85,2.29707445e-06,2.18193646e-05,5.13382132e-05,8.5695284e-05,0.000122254198,0.000159515016
4.9,2.30682797e-06,2.18565022e-05,5.13803451e-05,8.57372114e-05,0.000122302828,0.000159580583
4.95,2.31712182e-06,2.18961995e-05,5.14251241e-05,8.57805281e-05,0.000122351414,0.000159644997
5.0,2.32798649e-06,2.19386562e-05,5.14728456e-05,8.58254978e-05,0.00012240012,0.000159708352
5.05,2.33945325e-06,2.19840803e-05,5.15238236e-05,8.58724071e-05,0.000122449129,0.000159770749
5.1,2.35155414e-06,2.20326881e-05,5.15783902e-05,8.59215671e-05,0.000122498642,0.000159832296
5.15,2.36432196e-06,2.20847036e-05,5.16368964e-05,8.59733139e-05,0.000122548883,0.000159893112
5.2,2.37779022e-06,2.21403589e-05,5.16997119e-05,8.602801e-05,0.000122600101,0.000159953326
5.25,2.39199318e-06,2.2199894e-05,5.17672255e-05,8.60860449e-05,0.00012265257,0.000160013084
5.3,2.40696575e-06,2.22635566e-05,5.18398453e-05,8.61478361e-05,0.00012270659,0.000160072546
5.35,2.42274355e-06,2.23316019e-05,5.19179984e-05,8.62138299e-05,0.000122762493,0.000160131889
5.4,2.43936282e-06,2.24042929e-05,5.20021313e-05,8.62845017e-05,0.000122820638,0.000160191314
5.45,2.45686044e-06,2.24818995e-05,5.20927096e-05,8.63603573e-05,0.000122881419,0.00016025104
5.5,2.47527391e-06,2.25646991e-05,5.2190218e-05,8.64419329e-05,0.000122945264,0.000160311316
5.55,2.49464127e-06,2.26529759e-05,5.22951604e-05,8.65297955e-05,0.000123012636,0.000160372415
5.6,2.51500117e-06,2.27470212e-05,5.24080592e-05,8.66245438e-05,0.000123084035,0.000160434641
5.65,2.53639274e-06,2.28471326e-05,5.25294559e-05,8.67268079e-05,0.000123159998,0.000160498331
5.7,2.55885567e-06,2.29536144e-05,5.26599101e-05,8.683725e-05,0.000123241103,0.000160563856
5.75,2.5824301e-06,2.30667767e-05,5.27999998e-05,8.69565643e-05,0.000123327969,0.000160631622
5.8,2.60715666e-06,2.31869362e-05,5.29503207e-05,8.7085477e-05,0.000123421255,0.000160702076
5.85,2.63307639e-06,2.33144148e-05,5.31114861e-05,8.72247464e-05,0.000123521663,0.000160775706
5.9,2.66023077e-06,2.34495404e-05,5.32841266e-05,8.73751629e-05,0.000123629939,0.000160853042
5.95,2.68866165e-06,2.35926459e-05,5.34688894e-05,8.75375486e-05,0.000123746873,0.000160934662
6.0,2.71841125e-06,2.37440696e-05,5.36664382e-05,8.77127574e-05,0.000123873298,0.000161021189
6.05,2.74952215e-06,2.39041544e-05,5.38774527e-05,8.79016744e-05,0.000124010094,0.000161113295
6.1,2.78203722e-06,2.40732479e-05,5.41026279e-05,8.81052156e-05,0.000124158186,0.000161211703
6.15,2.81599966e-06,2.42517022e-05,5.4342674e-05,8.83243276e-05,0.000124318544,0.000161317188
6.2,2.8514529e-06,2.44398733e-05,5.45983156e-05,8.85599873e-05,0.000124492184,0.00016143058
6.25,2.88844064e-06,2.46381213e-05,5.48702914e-05,8.88132007e-05,0.000124680168,0.000161552763
6.3,2.92700683e-06,2.484681e-05,5.51593534e-05,8.90850031e-05,0.000124883605,0.000161684676
6.35,2.96719558e-06,2.50663062e-05,5.54662668e-05,8.9376458e-05,0.000125103647,0.000161827317
6.4,3.00905121e-06,2.52969805e-05,5.57918091e-05,8.96886567e-05,0.000125341494,0.00016198174
6.45,3.05261818e-06,2.55392058e-05,5.61367694e-05,9.00227172e-05,0.000125598388,0.000162149059
6.5,3.09794112e-06,2.57933581e-05,5.65019485e-05,9.0379784e-05,0.000125875618,0.000162330446
6.55,3.14506475e-06,2.60598157e-05,5.68881576e-05,9.07610267e-05,0.000126174515,0.000162527134
6.6,3.1940339e-06,2.63389591e-05,5.7296218e-05,9.11676398e-05,0.000126496455,0.000162740415
