vds,vb1,vb2,vb3,vb4,vb5,vb6
0.0,0.000540749282,0.0025928386,0.00408681329,0.00523197566,0.00607275537,0.00661764153
0.05,0.000354696855,0.0023622211,0.00383734829,0.00497850664,0.00582693928,0.00638799944
0.1,0.000191003972,0.00214186022,0.00359819542,0.0047344968,0.00558931133,0.00616515347
0.15,8.41274815e-05,0.00193119915,0.00336884033,0.00449952988,0.00535955524,0.00594887298
0.2,4.4500937e-05,0.00172969618,0.00314878282,0.00427320109,0.00513736304,0.00573893305
0.25,3.11903614e-05,0.00153681712,0.00293753333,0.00405511392,0.00492243273,0.00553511305
0.3,2.50372417e-05,0.00135201661,0.00273461237,0.00384487926,0.00471446712,0.00533719563
0.35,2.14400853e-05,0.0011746916,0.00253954983,0.00364211629,0.00451317369,0.00514496628
0.4,1.90482966e-05,0.00100409581,0.00235188051,0.00344645407,0.00431826538,0.0049582134
0.45,1.7332106e-05,0.000839297051,0.00217113111,0.00325753294,0.00412946194,0.00477672886
0.5,1.60373395e-05,0.000679780228,0.00199679221,0.00307500443,0.00394649139,0.00460030878
0.55,1.50248923e-05,0.000528496809,0.00182826449,0.00289852863,0.00376909118,0.00442875445
0.6,1.42114835e-05,0.000396179839,0.00166476088,0.00272776766,0.00359700884,0.00426187329
0.65,1.35439181e-05,0.000294791331,0.0015051368,0.00256237316,0.00343000161,0.00409947956
0.7,1.29865096e-05,0.000224684586,0.00134762931,0.00240196494,0.0032678348,0.00394139495
0.75,1.25143755e-05,0.000177677575,0.00118960416,0.00224609537,0.00311027839,0.00378744863
0.8,1.21096146e-05,0.000145602521,0.0010279112,0.0020941907,0.00295710129,0.00363747695
0.85,1.17590095e-05,0.000122937358,0.000861457218,0.00194545485,0.00280806221,0.00349132247
0.9,1.14525838e-05,0.000106321026,0.000696555589,0.00179871573,0.00266289557,0.0033488323
0.95,1.11826646e-05,9.37272992e-05,0.000547881176,0.00165220008,0.00252128992,0.00320985538
1.0,1.0943253e-05,8.39057517e-05,0.000427955657,0.00150328283,0.00238285432,0.00307423861
1.05,1.07295909e-05,7.60587902e-05,0.000338498629,0.00134849086,0.00224706615,0.0029418211
1.1,1.05378558e-05,6.96600834e-05,0.00027382105,0.00118458836,0.00211318959,0.00281242581
1.15,1.03649421e-05,6.43510846e-05,0.00022697689,0.00101188512,0.00198015187,0.00268584746
1.2,1.02083005e-05,5.98804309e-05,0.000192438424,0.00083845689,0.00184636831,0.00256183449
1.25,1.0065819e-05,5.60673395e-05,0.000166371422,0.000678868932,0.0017095415,0.00244006207
1.3,9.93573315e-06,5.27788109e-05,0.000146224966,0.000545208479,0.00156658017,0.00232009139
1.35,9.81655749e-06,4.99150137e-05,0.000130306337,0.000440693362,0.00141406918,0.00220130818
1.4,9.70703274e-06,4.73996641e-05,0.000117476793,0.00036168906,0.00125005388,0.00208283205
1.45,9.60608441e-06,4.51735364e-05,0.000106954791,0.000302381468,0.0010773149,0.00196339
1.5,9.51279017e-06,4.31899882e-05,9.81921617e-05,0.000257475928,0.000905516722,0.00184116426
1.55,9.42635399e-06,4.14118136e-05,9.07960978e-05,0.000222935701,0.000747910071,0.00171368082
1.6,9.34608526e-06,3.98089884e-05,8.44793719e-05,0.000195883272,0.000614190826,0.00157794454
1.65,9.271382e-06,3.83570284e-05,7.9027995e-05,0.000174309743,0.000506890035,0.00143124681
1.7,9.20171712e-06,3.70357755e-05,7.42797893e-05,0.000156811821,0.00042325549,0.00127308302
1.75,9.13662721e-06,3.58284881e-05,7.01099109e-05,0.0001423989,0.000358603825,0.0011076342
1.8,9.0757032e-06,3.47211503e-05,6.64208819e-05,0.000130361245,0.000308397019,0.000944312717
1.85,9.01858272e-06,3.37019418e-05,6.31356013e-05,0.000120181972,0.000268967183,0.000794232965
1.9,8.96494361e-06,3.27608256e-05,6.01923631e-05,0.000111478397,0.000237563537,0.000665093187
1.95,8.91449854e-06,3.18892261e-05,5.75412482e-05,0.000103962662,0.000212182351,0.000559068914
2.0,8.86699045e-06,3.10797729e-05,5.51414729e-05,9.74149682e-05,0.000191374177,0.000474250074
2.05,8.8221887e-06,3.03260974e-05,5.29594146e-05,9.16651297e-05,0.000174086127,0.000407016308
2.1,8.77988576e-06,2.96226685e-05,5.09671233e-05,8.65796594e-05,0.000159545919,0.00035362973
2.15,8.73989441e-06,2.89646602e-05,4.91411852e-05,8.20526e-05,0.000147180115,0.000310902616
2.2,8.70204538e-06,2.83478428e-05,4.74618473e-05,7.79989172e-05,0.000136557281,0.000276332495
2.25,8.66618516e-06,2.77684938e-05,4.5912335e-05,7.43496727e-05,0.000127348497,0.000248025159
2.3,8.63217434e-06,2.72233246e-05,4.44783157e-05,7.10484526e-05,0.000119299752,0.000224565815
2.35,8.59988594e-06,2.6709419e-05,4.31474736e-05,6.80486918e-05,0.000112212475,0.000204898975
2.4,8.56920412e-06,2.62241821e-05,4.19091698e-05,6.53116461e-05,0.000105929632,0.000188233018
2.45,8.54002299e-06,2.57652976e-05,4.0754168e-05,6.2804839e-05,0.000100325698,0.000173969054
2.5,8.51224555e-06,2.5330691e-05,3.96744125e-05,6.050086e-05,9.52993214e-05,0.000161649321
2.55,8.48578281e-06,2.49184996e-05,3.86628464e-05,5.83764259e-05,9.0767899e-05,0.000150920103
2.6,8.46055295e-06,2.45270457e-05,3.77132627e-05,5.64116411e-05,8.66635243e-05,0.000141505076
2.65,8.43648066e-06,2.41548142e-05,3.68201807e-05,5.45894098e-05,8.29299188e-05,0.000133186064
2.7,8.4134965e-06,2.38004339e-05,3.59787431e-05,5.28949655e-05,7.95200896e-05,0.000125789039
2.75,8.39153631e-06,2.34626604e-05,3.51846307e-05,5.13154908e-05,7.63945221e-05,0.000119173835
2.8,8.37054077e-06,2.3140362e-05,3.44339901e-05,4.98398097e-05,7.35197723e-05,0.000113226527
2.85,8.35045493e-06,2.28325073e-05,3.37233729e-05,4.84581347e-05,7.08673613e-05,0.000107853721
2.9,8.33122783e-06,2.2538154e-05,3.3049684e-05,4.71618602e-05,6.84128996e-05,0.000102978236
2.95,8.31281213e-06,2.22564401e-05,3.24101378e-05,4.59433901e-05,6.61353883e-05,9.85358132e-05
3.0,8.29516381e-06,2.1986575e-05,3.18022206e-05,4.47959956e-05,6.40166568e-05,9.44725698e-05
3.05,8.27824189e-06,2.17278325e-05,3.12236583e-05,4.37136957e-05,6.20409078e-05,9.0743029e-05
3.1,8.26200818e-06,2.14795446e-05,3.06723888e-05,4.26911565e-05,6.01943466e-05,8.73085699e-05
3.15,8.24642703e-06,2.12410953e-05,3.01465377e-05,4.17236072e-05,5.84648766e-05,8.41362043e-05
3.2,8.23146513e-06,2.1011916e-05,2.96443978e-05,4.08067678e-05,5.6841849e-05,8.1197602e-05
3.25,8.21709134e-06,2.07914811e-05,2.91644107e-05,3.9936788e-05,5.53158541e-05,7.84683089e-05
3.3,8.2032765e-06,2.05793037e-05,2.8705151e-05,3.91101952e-05,5.38785481e-05,7.59271151e-05
3.35,8.18999328e-06,2.03749323e-05,2.82653128e-05,3.8323849e-05,5.25225077e-05,7.35555417e-05
3.4,8.17721605e-06,2.01779477e-05,2.78436969e-05,3.75749035e-05,5.12411075e-05,7.13374201e-05
3.45,8.16492075e-06,1.99879601e-05,2.74392006e-05,3.68607728e-05,5.00284169e-05,6.92585468e-05
3.5,8.15308474e-06,1.98046066e-05,2.70508083e-05,3.6179103e-05,4.88791116e-05,6.73063964e-05
3.55,8.14168676e-06,1.96275487e-05,2.66775826e-05,3.55277462e-05,4.77883988e-05,6.54698842e-05
3.6,8.13070678e-06,1.94564709e-05,2.63186573e-05,3.49047391e-05,4.67519533e-05,6.37391667e-05
3.65,8.12012593e-06,1.92910779e-05,2.59732308e-05,3.43082833e-05,4.57658619e-05,6.21054747e-05
3.7,8.1099264e-06,1.91310938e-05,2.56405602e-05,3.37367287e-05,4.48265758e-05,6.05609715e-05
3.75,8.1000914e-06,1.897626e-05,2.53199558e-05,3.31885584e-05,4.39308697e-05,5.90986338e-05
3.8,8.09060507e-06,1.88263344e-05,2.50107768e-05,3.26623757e-05,4.30758059e-05,5.77121497e-05
3.85,8.08145242e-06,1.86810895e-05,2.47124266e-05,3.21568926e-05,4.22587031e-05,5.63958314e-05
3.9,8.07261927e-06,1.85403117e-05,2.44243497e-05,3.16709192e-05,4.14771093e-05,5.5144541e-05
3.95,8.06409219e-06,1.84038002e-05,2.41460276e-05,3.12033548e-05,4.07287778e-05,5.39536255e-05
4.0,8.05585847e-06,1.82713661e-05,2.38769762e-05,3.07531796e-05,4.00116465e-05,5.28188622e-05
4.05,8.04790606e-06,1.81428313e-05,2.36167427e-05,3.03194476e-05,3.93238192e-05,5.17364097e-05
4.1,8.04022354e-06,1.80180281e-05,2.33649034e-05,2.99012799e-05,3.86635497e-05,5.07027667e-05
4.15,8.03280006e-06,1.78967982e-05,2.31210613e-05,2.9497859e-05,3.80292269e-05,4.9714735e-05
4.2,8.02562531e-06,1.77789919e-05,2.2884844e-05,2.91084236e-05,3.74193623e-05,4.87693881e-05
4.25,8.01868952e-06,1.7664468e-05,2.26559018e-05,2.87322637e-05,3.68325788e-05,4.78640426e-05
4.3,8.01198338e-06,1.75530929e-05,2.24339061e-05,2.83687164e-05,3.62676003e-05,4.69962344e-05
4.35,8.00549804e-06,1.744474e-05,2.22185479e-05,2.80171624e-05,3.57232425e-05,4.6163696e-05
4.4,7.99922507e-06,1.73392895e-05,2.20095359e-05,2.76770219e-05,3.51984054e-05,4.53643382e-05
4.45,7.99315646e-06,1.72366279e-05,2.18065961e-05,2.73477523e-05,3.46920652e-05,4.45962326e-05
4.5,7.98728454e-06,1.71366475e-05,2.16094697e-05,2.70288443e-05,3.42032688e-05,4.38575966e-05
4.55,7.98160204e-06,1.70392458e-05,2.14179125e-05,2.67198204e-05,3.3731127e-05,4.31467803e-05
4.6,7.97610201e-06,1.69443259e-05,2.12316939e-05,2.64202319e-05,3.32748096e-05,4.24622537e-05
4.65,7.9707778e-06,1.68517955e-05,2.10505958e-05,2.61296566e-05,3.28335408e-05,4.1802597e-05
4.7,7.96562308e-06,1.67615666e-05,2.08744119e-05,2.58476975e-05,3.24065945e-05,4.11664904e-05
4.75,7.9606318e-06,1.66735557e-05,2.07029468e-05,2.55739804e-05,3.19932906e-05,4.05527054e-05
4.8,7.95579817e-06,1.65876833e-05,2.05360153e-05,2.53081526e-05,3.15929915e-05,3.99600975e-05
4.85,7.95111667e-06,1.65038737e-05,2.0373442e-05,2.50498814e-05,3.12050987e-05,3.93875989e-05
4.9,7.94658199e-06,1.64220544e-05,2.02150601e-05,2.47988524e-05,3.08290499e-05,3.88342125e-05
4.95,7.94218909e-06,1.63421566e-05,2.00607117e-05,2.45547685e-05,3.04643163e-05,3.82990058e-05
5.0,7.9379331e-06,1.62641145e-05,1.99102463e-05,2.43173489e-05,3.01104004e-05,3.77811061e-05
5.05,7.93380939e-06,1.61878653e-05,1.97635212e-05,2.40863275e-05,2.97668334e-05,3.72796957e-05
5.1,7.9298135e-06,1.61133489e-05,1.96204003e-05,2.38614525e-05,2.94331733e-05,3.67940078e-05
5.15,7.92594117e-06,1.6040508e-05,1.94807544e-05,2.36424852e-05,2.9109003e-05,3.63233224e-05
5.2,7.92218831e-06,1.59692878e-05,1.93444601e-05,2.34291989e-05,2.87939288e-05,3.58669629e-05
5.25,7.91855098e-06,1.58996356e-05,1.92114e-05,2.32213788e-05,2.84875785e-05,3.54242931e-05
5.3,7.91502544e-06,1.58315014e-05,1.90814621e-05,2.30188206e-05,2.81895999e-05,3.4994714e-05
5.35,7.91160805e-06,1.57648369e-05,1.89545396e-05,2.28213303e-05,2.78996599e-05,3.45776611e-05
5.4,7.90829534e-06,1.5699596e-05,1.88305304e-05,2.26287231e-05,2.76174429e-05,3.41726023e-05
5.45,7.90508397e-06,1.56357345e-05,1.8709337e-05,2.24408236e-05,2.73426496e-05,3.37790354e-05
5.5,7.90197074e-06,1.557321e-05,1.85908664e-05,2.22574644e-05,2.70749963e-05,3.33964858e-05
5.55,7.89895256e-06,1.55119818e-05,1.84750294e-05,2.20784861e-05,2.68142135e-05,3.30245052e-05
5.6,7.89602645e-06,1.5452011e-05,1.8361741e-05,2.19037368e-05,2.65600455e-05,3.26626694e-05
5.65,7.89318958e-06,1.53932599e-05,1.82509196e-05,2.17330715e-05,2.63122489e-05,3.23105769e-05
5.7,7.89043917e-06,1.53356925e-05,1.8142487e-05,2.1566352e-05,2.60705927e-05,3.19678471e-05
5.75,7.8877726e-06,1.52792743e-05,1.80363686e-05,2.14034461e-05,2.58348566e-05,3.16341194e-05
5.8,7.88518731e-06,1.5223972e-05,1.79324926e-05,2.12442277e-05,2.5604831e-05,3.13090517e-05
5.85,7.88268085e-06,1.51697535e-05,1.78307902e-05,2.1088576e-05,2.53803164e-05,3.09923191e-05
5.9,7.88025084e-06,1.5116588e-05,1.77311956e-05,2.09363756e-05,2.51611222e-05,3.06836131e-05
5.95,7.87789501e-06,1.50644459e-05,1.76336454e-05,2.07875162e-05,2.49470669e-05,3.03826404e-05
6.0,7.87561115e-06,1.50132987e-05,1.75380789e-05,2.0641892e-05,2.47379772e-05,3.00891219e-05
6.05,7.87339715e-06,1.49631188e-05,1.74444376e-05,2.04994018e-05,2.45336875e-05,2.98027922e-05
6.1,7.87125095e-06,1.49138797e-05,1.73526656e-05,2.03599484e-05,2.43340396e-05,2.95233983e-05
6.15,7.86917058e-06,1.48655559e-05,1.72627087e-05,2.02234388e-05,2.41388825e-05,2.92506993e-05
6.2,7.86715412e-06,1.48181228e-05,1.71745153e-05,2.00897837e-05,2.39480713e-05,2.89844654e-05
6.25,7.86519975e-06,1.47715566e-05,1.70880352e-05,1.99588976e-05,2.37614678e-05,2.87244774e-05
6.3,7.86330567e-06,1.47258344e-05,1.70032206e-05,1.9830698e-05,2.35789394e-05,2.84705259e-05
6.35,7.86147016e-06,1.46809341e-05,1.69200252e-05,1.97051062e-05,2.34003592e-05,2.82224111e-05
6.4,7.85969156e-06,1.46368344e-05,1.68384043e-05,1.9582046e-05,2.32256054e-05,2.79799421e-05
6.45,7.85796827e-06,1.45935145e-05,1.67583152e-05,1.94614446e-05,2.30545614e-05,2.77429361e-05
6.5,7.85629873e-06,1.45509545e-05,1.66797163e-05,1.93432318e-05,2.28871153e-05,2.75112184e-05
6.55,7.85468144e-06,1.45091353e-05,1.66025678e-05,1.92273399e-05,2.27231596e-05,2.72846218e-05
6.6,7.85311493e-06,1.44680381e-05,1.65268311e-05,1.91137042e-05,2.25625912e-05,2.70629861e-05
