vds,vb1,vb2,vb3,vb4,vb5,vb6
0.0,1.76811812e-05,9.17577975e-05,0.000155209592,0.000206011064,0.000244287664,0.000271157481
0.05,1.3099462e-05,8.68176078e-05,0.000150559564,0.000201756839,0.000240472309,0.000267786412
0.1,8.62641433e-06,8.18905938e-05,0.000145922703,0.000197514457,0.000236666979,0.000264423517
0.15,4.54960257e-06,7.69767963e-05,0.00014129896,0.000193283877,0.000232871642,0.000261068772
0.2,1.7011453e-06,7.20762922e-05,0.000136688289,0.000189065055,0.000229086263,0.000257722151
0.25,5.39822346e-07,6.71892138e-05,0.000132090643,0.000184857949,0.000225310809,0.00025438363
0.3,2.0964908e-07,6.23157803e-05,0.000127505975,0.000180662516,0.000221545246,0.000251053183
0.35,1.09279155e-07,5.74563503e-05,0.000122934239,0.000176478713,0.000217789541,0.000247730787
0.4,7.19041573e-08,5.26115136e-05,0.000118375389,0.000172306497,0.00021404366,0.000244416415
0.45,5.52448389e-08,4.77822546e-05,0.00011382938,0.000168145825,0.000210307571,0.000241110045
0.5,4.67235049e-08,4.2970256e-05,0.000109296168,0.000163996652,0.000206581239,0.00023781165
0.55,4.18859065e-08,3.81784816e-05,0.000104775712,0.000159858936,0.000202864632,0.000234521207
0.6,3.89098584e-08,3.34123387e-05,0.00010026797,0.000155732632,0.000199157715,0.00023123869
0.65,3.69594755e-08,2.86820739e-05,9.5772906e-05,0.000151617696,0.000195460455,0.000227964076
0.7,3.5614656e-08,2.40078262e-05,9.12904882e-05,0.000147514082,0.000191772819,0.00022469734
0.75,3.46480751e-08,1.94302216e-05,8.6820692e-05,0.000143421746,0.000188094772,0.000221438456
0.8,3.39290187e-08,1.50309995e-05,8.23635044e-05,0.000139340639,0.000184426281,0.000218187402
0.85,3.33784145e-08,1.0964023e-05,7.79189296e-05,0.000135270716,0.000180767312,0.000214944151
0.9,3.2946332e-08,7.46832329e-06,7.34869986e-05,0.000131211928,0.00017711783,0.00021170868
0.95,3.2600062e-08,4.78562579e-06,6.90677845e-05,0.000127164225,0.000173477801,0.000208480965
1.0,3.23174843e-08,2.98111813e-06,6.46614275e-05,0.000123127556,0.00016984719,0.000205260979
1.05,3.20832189e-08,1.88752294e-06,6.02681756e-05,0.000119101869,0.000166225962,0.0002020487
1.1,3.18863072e-08,1.25526128e-06,5.58884536e-05,0.000115087109,0.000162614081,0.000198844102
1.15,3.17187702e-08,8.8830933e-07,5.15229818e-05,0.000111083219,0.000159011511,0.00019564716
1.2,3.15746849e-08,6.68247335e-07,4.71729818e-05,0.00010709014,0.000155418215,0.00019245785
1.25,3.14495779e-08,5.30390204e-07,4.28405443e-05,0.000103107808,0.000151834157,0.000189276147
1.3,3.1340017e-08,4.4008392e-07,3.85292926e-05,9.91361584e-05,0.000148259297,0.000186102025
1.35,3.1243332e-08,3.7841946e-07,3.42455958e-05,9.51751207e-05,0.000144693598,0.00018293546
1.4,3.1157418e-08,3.34726102e-07,3.00007891e-05,9.12246206e-05,0.000141137019,0.000179776426
1.45,3.10805966e-08,3.02747865e-07,2.58151571e-05,8.72845798e-05,0.000137589519,0.000176624898
1.5,3.10115147e-08,2.78675578e-07,2.17246736e-05,8.33549151e-05,0.000134051056,0.000173480849
1.55,3.09490711e-08,2.60106079e-07,1.77908789e-05,7.94355403e-05,0.000130521584,0.000170344255
1.6,3.08923608e-08,2.45473212e-07,1.41107538e-05,7.55263669e-05,0.000127001058,0.000167215088
1.65,3.08406343e-08,2.33725897e-07,1.08150471e-05,7.16273088e-05,0.000123489429,0.000164093322
1.7,3.07932658e-08,2.24139863e-07,8.0373804e-06,6.77382887e-05,0.000119986647,0.00016097893
1.75,3.07497292e-08,2.16204044e-07,5.85590843e-06,6.38592515e-05,0.000116492657,0.000157871885
1.8,3.07095788e-08,2.09550039e-07,4.25202025e-06,5.99901874e-05,0.000113007401,0.000154772158
1.85,3.06724354e-08,2.03907129e-07,3.12730439e-06,5.61311728e-05,0.000109530817,0.00015167972
1.9,3.06379735e-08,1.99072885e-07,2.35668889e-06,5.22824426e-05,0.000106062839,0.000148594544
1.95,3.06059132e-08,1.9489354e-07,1.82985919e-06,4.84445171e-05,0.000102603393,0.000145516599
2.0,3.05760118e-08,1.91250603e-07,1.46538548e-06,4.46184248e-05,9.91524001e-05,0.000142445853
2.05,3.05480583e-08,1.88051568e-07,1.20825478e-06,4.08060952e-05,9.57097724e-05,0.000139382275
2.1,3.0521868e-08,1.8522335e-07,1.02268677e-06,3.70110463e-05,9.22754125e-05,0.000136325833
2.15,3.04972792e-08,1.82707565e-07,8.85624384e-07,3.32395778e-05,8.88492121e-05,0.000133276491
2.2,3.0474149e-08,1.80457109e-07,7.82112399e-07,2.95027836e-05,8.54310497e-05,0.000130234214
2.25,3.04523511e-08,1.78433617e-07,7.0230728e-07,2.58197748e-05,8.20207886e-05,0.000127198965
2.3,3.04317736e-08,1.76605575e-07,6.39609261e-07,2.22223251e-05,7.86182746e-05,0.000124170703
2.35,3.04123165e-08,1.74946893e-07,5.89504885e-07,1.87602409e-05,7.52233333e-05,0.000121149388
2.4,3.03938906e-08,1.73435804e-07,5.48845703e-07,1.55045131e-05,7.18357682e-05,0.000118134974
2.45,3.03764159e-08,1.72054029e-07,5.15393051e-07,1.25423733e-05,6.84553583e-05,0.000115127414
2.5,3.03598206e-08,1.70786117e-07,4.87526117e-07,9.95894075e-06,6.50818586e-05,0.000112126657
2.55,3.03440396e-08,1.69618927e-07,4.6405141e-07,7.80957432e-06,6.1715002e-05,0.000109132649
2.6,3.03290146e-08,1.68541223e-07,4.44076197e-07,6.09974045e-06,5.83545084e-05,0.000106145327
2.65,3.03146923e-08,1.67543344e-07,4.26922933e-07,4.7871083e-06,5.50001033e-05,0.000103164628
2.7,3.03010247e-08,1.66616946e-07,4.12070445e-07,3.8019397e-06,5.16515566e-05,0.000100190479
2.75,3.02879677e-08,1.65754784e-07,3.99112835e-07,3.06971642e-06,4.83087543e-05,9.72228004e-05
2.8,3.02754814e-08,1.64950543e-07,3.87730341e-07,2.52518651e-06,4.49718309e-05,9.42615029e-05
2.85,3.02635291e-08,1.64198696e-07,3.77668372e-07,2.11713466e-06,4.16414033e-05,9.13064874e-05
2.9,3.02520774e-08,1.63494384e-07,3.68722226e-07,1.80771096e-06,3.83189795e-05,8.83576424e-05
2.95,3.02410954e-08,1.62833321e-07,3.60725805e-07,1.56977949e-06,3.50076521e-05,8.54148413e-05
3.0,3.02305548e-08,1.62211715e-07,3.53543193e-07,1.38411755e-06,3.17132407e-05,8.24779408e-05
3.05,3.02204297e-08,1.61626195e-07,3.47062291e-07,1.23711912e-06,2.84460786e-05,7.95467772e-05
3.1,3.0210696e-08,1.61073761e-07,3.41189962e-07,1.11909746e-06,2.5223584e-05,7.66211629e-05
3.15,3.02013314e-08,1.60551729e-07,3.3584829e-07,1.02308957e-06,2.2073447e-05,7.37008825e-05
3.2,3.01923155e-08,1.60057697e-07,3.30971677e-07,9.44031949e-07,1.90364847e-05,7.0785688e-05
3.25,3.01836291e-08,1.59589503e-07,3.26504561e-07,8.78196124e-07,1.61669932e-05,6.78752933e-05
3.3,3.01752546e-08,1.591452e-07,3.22399612e-07,8.22801565e-07,1.35276421e-05,6.49693694e-05
3.35,3.01671755e-08,1.58723032e-07,3.18616305e-07,7.75748558e-07,1.11775536e-05,6.20675385e-05
3.4,3.01593766e-08,1.58321405e-07,3.15119761e-07,7.35432212e-07,9.15701957e-06,5.91693698e-05
3.45,3.01518436e-08,1.57938877e-07,3.11879824e-07,7.00611605e-07,7.47669273e-06,5.62743784e-05
3.5,3.01445633e-08,1.57574132e-07,3.08870304e-07,6.70316683e-07,6.11732271e-06,5.33820292e-05
3.55,3.0137523e-08,1.57225975e-07,3.0606836e-07,6.43781273e-07,5.03889236e-06,5.04917529e-05
3.6,3.01307114e-08,1.56893311e-07,3.03453992e-07,6.20394334e-07,4.1927885e-06,4.76029815e-05
3.65,3.01241174e-08,1.56575142e-07,3.01009623e-07,5.99664095e-07,3.53142384e-06,4.47152201e-05
3.7,3.01177309e-08,1.56270549e-07,2.98719749e-07,5.81191374e-07,3.01344937e-06,4.182818e-05
3.75,3.01115423e-08,1.55978693e-07,2.96570651e-07,5.6464955e-07,2.60538466e-06,3.89420142e-05
3.8,3.01055426e-08,1.55698798e-07,2.94550145e-07,5.49769355e-07,2.28121939e-06,3.60577172e-05
3.85,3.00997234e-08,1.55430152e-07,2.92647384e-07,5.36327234e-07,2.02120094e-06,3.317778e-05
3.9,3.00940767e-08,1.55172097e-07,2.90852676e-07,5.24136356e-07,1.81048781e-06,3.03072085e-05
3.95,3.0088595e-08,1.54924023e-07,2.89157343e-07,5.13039604e-07,1.63795993e-06,2.74550068e-05
4.0,3.00832713e-08,1.5468537e-07,2.8755359e-07,5.02904078e-07,1.49526725e-06,2.46361193e-05
4.05,3.00780989e-08,1.54455615e-07,2.860344e-07,4.93616738e-07,1.37610628e-06,2.18735467e-05
4.1,3.00730715e-08,1.54234273e-07,2.84593438e-07,4.85080936e-07,1.27568395e-06,1.91998337e-05
4.15,3.00681832e-08,1.54020897e-07,2.83224976e-07,4.77213635e-07,1.19032547e-06,1.66565539e-05
4.2,3.00634283e-08,1.53815065e-07,2.81923819e-07,4.69943159e-07,1.11718842e-06,1.42903433e-05
4.25,3.00588015e-08,1.5361639e-07,2.80685246e-07,4.63207367e-07,1.05405446e-06,1.21452455e-05
4.3,3.00542978e-08,1.53424507e-07,2.79504963e-07,4.5695216e-07,9.99176797e-07,1.02535189e-05
4.35,3.00499123e-08,1.53239077e-07,2.78379047e-07,4.51130258e-07,9.51167894e-07,8.62884699e-06
4.4,3.00456406e-08,1.53059782e-07,2.77303918e-07,4.45700179e-07,9.08916308e-07,7.26501458e-06
4.45,3.00414783e-08,1.52886324e-07,2.76276294e-07,4.40625406e-07,8.71524523e-07,6.13997151e-06
4.5,3.00374213e-08,1.52718427e-07,2.75293167e-07,4.35873678e-07,8.38262174e-07,5.22257143e-06
4.55,3.00334658e-08,1.52555828e-07,2.74351773e-07,4.31416406e-07,8.08530546e-07,4.47897934e-06
4.6,3.0029608e-08,1.52398283e-07,2.73449568e-07,4.27228177e-07,7.81835419e-07,3.87711204e-06
4.65,3.00258444e-08,1.52245562e-07,2.72584207e-07,4.23286332e-07,7.57766133e-07,3.38892995e-06
4.7,3.00221717e-08,1.52097447e-07,2.71753526e-07,4.19570614e-07,7.35979321e-07,2.99114134e-06
4.75,3.00185866e-08,1.51953736e-07,2.70955524e-07,4.16062866e-07,7.16186184e-07,2.66499529e-06
4.8,3.00150861e-08,1.51814235e-07,2.70188349e-07,4.12746767e-07,6.9814245e-07,2.39567185e-06
4.85,3.00116673e-08,1.51678765e-07,2.69450285e-07,4.09607615e-07,6.81640416e-07,2.17157103e-06
4.9,3.00083275e-08,1.51547154e-07,2.68739736e-07,4.06632134e-07,6.66502582e-07,1.98364757e-06
4.95,3.00050639e-08,1.51419241e-07,2.68055224e-07,4.03808309e-07,6.52576534e-07,1.82484698e-06
5.0,3.0001874e-08,1.51294873e-07,2.67395368e-07,4.01125241e-07,6.3973081e-07,1.68965189e-06
5.05,2.99987554e-08,1.51173906e-07,2.66758886e-07,3.98573025e-07,6.27851528e-07,1.57372738e-06
5.1,2.99957058e-08,1.51056203e-07,2.66144579e-07,3.96142642e-07,6.16839637e-07,1.47364836e-06
5.15,2.99927229e-08,1.50941635e-07,2.65551329e-07,3.93825861e-07,6.06608649e-07,1.38669155e-06
5.2,2.99898047e-08,1.50830079e-07,2.64978091e-07,3.91615159e-07,5.97082768e-07,1.31067729e-06
5.25,2.99869491e-08,1.50721419e-07,2.64423887e-07,3.89503647e-07,5.88195333e-07,1.24384921e-06
5.3,2.99841541e-08,1.50615544e-07,2.638878e-07,3.87485007e-07,5.79887523e-07,1.18478247e-06
5.35,2.99814179e-08,1.50512349e-07,2.63368971e-07,3.85553432e-07,5.7210727e-07,1.13231347e-06
5.4,2.99787387e-08,1.50411734e-07,2.62866595e-07,3.83703581e-07,5.64808339e-07,1.08548583e-06
5.45,2.99761147e-08,1.50313605e-07,2.62379913e-07,3.8193053e-07,5.57949559e-07,1.04350852e-06
5.5,2.99735443e-08,1.50217871e-07,2.61908213e-07,3.80229733e-07,5.51494167e-07,1.00572335e-06
5.55,2.99710259e-08,1.50124447e-07,2.61450825e-07,3.7859699e-07,5.45409245e-07,9.71579475e-07
5.6,2.9968558e-08,1.50033249e-07,2.61007118e-07,3.77028413e-07,5.39665243e-07,9.40613339e-07
5.65,2.99661391e-08,1.49944201e-07,2.60576496e-07,3.75520399e-07,5.34235576e-07,9.12432776e-07
5.7,2.99637678e-08,1.49857227e-07,2.60158399e-07,3.74069602e-07,5.29096261e-07,8.86704339e-07
5.75,2.99614428e-08,1.49772256e-07,2.59752295e-07,3.72672916e-07,5.24225621e-07,8.63143139e-07
5.8,2.99591627e-08,1.49689221e-07,2.59357684e-07,3.71327451e-07,5.19604018e-07,8.41504656e-07
5.85,2.99569262e-08,1.49608056e-07,2.58974092e-07,3.70030512e-07,5.15213624e-07,8.215781e-07
5.9,2.99547322e-08,1.495287e-07,2.58601071e-07,3.68779591e-07,5.11038223e-07,8.03181e-07
5.95,2.99525795e-08,1.49451092e-07,2.58238196e-07,3.67572343e-07,5.07063038e-07,7.86154768e-07
6.0,2.9950467e-08,1.49375177e-07,2.57885065e-07,3.66406578e-07,5.03274576e-07,7.70361049e-07
6.05,2.99483935e-08,1.493009e-07,2.57541296e-07,3.65280248e-07,4.99660495e-07,7.55678707e-07
6.1,2.99463581e-08,1.49228209e-07,2.57206527e-07,3.64191435e-07,4.96209488e-07,7.42001308e-07
6.15,2.99443598e-08,1.49157054e-07,2.56880414e-07,3.6313834e-07,4.92911178e-07,7.29235033e-07
6.2,2.99423974e-08,1.49087387e-07,2.56562631e-07,3.62119276e-07,4.89756027e-07,7.17296917e-07
6.25,2.99404702e-08,1.49019162e-07,2.56252867e-07,3.6113266e-07,4.86735253e-07,7.06113373e-07
6.3,2.99385772e-08,1.48952336e-07,2.55950826e-07,3.60177002e-07,4.8384076e-07,6.95618943e-07
6.35,2.99367175e-08,1.48886866e-07,2.55656227e-07,3.59250902e-07,4.81065073e-07,6.85755241e-07
6.4,2.99348903e-08,1.48822711e-07,2.55368802e-07,3.5835304e-07,4.7840128e-07,6.76470046e-07
6.45,2.99330947e-08,1.48759833e-07,2.55088297e-07,3.57482175e-07,4.75842982e-07,6.67716537e-07
6.5,2.99313301e-08,1.48698193e-07,2.54814466e-07,3.56637134e-07,4.73384247e-07,6.59452629e-07
6.55,2.99295955e-08,1.48637757e-07,2.54547079e-07,3.55816811e-07,4.7101957e-07,6.51640409e-07
6.6,2.99278903e-08,1.4857849e-07,2.54285914e-07,3.5502016e-07,4.68743832e-07,6.44245641e-07
