vds,vb1,vb2,vb3,vb4,vb5,vb6
0.0,3.50724314e-05,0.000183888506,0.000311024712,0.000413373955,0.000490108203,0.000544003913
0.05,2.58845648e-05,0.000173964954,0.000301686519,0.000404829926,0.000482446996,0.000537235788
0.1,1.69235836e-05,0.000164067875,0.000292374785,0.000396309716,0.000474805949,0.0005304841
0.15,8.79850829e-06,0.000154197352,0.000283089413,0.000387813239,0.000467184994,0.000523748798
0.2,3.22783798e-06,0.000144353544,0.00027383031,0.000379340409,0.000459584064,0.000517029832
0.25,1.02041317e-06,0.000134536719,0.00026459738,0.00037089114,0.000452003091,0.000510327153
0.3,4.00044907e-07,0.000124747326,0.00025539053,0.000362465347,0.000444442009,0.000503640709
0.35,2.10820704e-07,0.000114986097,0.000246209668,0.000354062941,0.000436900749,0.000496970452
0.4,1.39922832e-07,0.000105254237,0.000237054701,0.000345683837,0.000429379244,0.000490316331
0.45,1.08149764e-07,9.55537624e-05,0.000227925539,0.000337327947,0.000421877428,0.000483678297
0.5,9.18278819e-08,8.58881222e-05,0.000218822094,0.000328995185,0.000414395232,0.0004770563
0.55,8.25306984e-08,7.62634039e-05,0.000209744281,0.000320685461,0.00040693259,0.000470450292
0.6,7.67958927e-08,6.66907362e-05,0.000200692019,0.000312398686,0.000399489434,0.000463860222
0.65,7.30294522e-08,5.71912543e-05,0.000191665235,0.000304134772,0.000392065697,0.000457286041
0.7,7.04278648e-08,4.78065834e-05,0.000182663865,0.000295893627,0.00038466131,0.000450727699
0.75,6.855526e-08,3.8620816e-05,0.000173687861,0.000287675159,0.000377276206,0.000444185148
0.8,6.71604881e-08,2.98030979e-05,0.000164737198,0.000279479274,0.000369910317,0.000437658337
0.85,6.60913548e-08,2.16705101e-05,0.000155811887,0.000271305878,0.000362563573,0.000431147219
0.9,6.52516111e-08,1.47099316e-05,0.000146911995,0.000263154873,0.000355235906,0.000424651742
0.95,6.45781227e-08,9.40035323e-06,0.000138037674,0.000255026159,0.000347927246,0.000418171858
1.0,6.40281451e-08,5.85075527e-06,0.000129189217,0.000246919632,0.000340637523,0.000411707518
1.05,6.35719281e-08,3.70845625e-06,0.00012036714,0.000238835188,0.000333366667,0.000405258671
1.1,6.31882556e-08,2.47173438e-06,0.000111572325,0.000230772714,0.000326114605,0.000398825269
1.15,6.28616677e-08,1.75366438e-06,0.000102806271,0.000222732098,0.000318881264,0.000392407261
1.2,6.25806798e-08,1.32244188e-06,9.40715204e-05,0.000214713217,0.000311666572,0.000386004597
1.25,6.23366125e-08,1.05184282e-06,8.53724323e-05,0.000206715946,0.000304470453,0.000379617228
1.3,6.21228031e-08,8.74276971e-07,7.67165717e-05,0.00019874015,0.000297292829,0.000373245102
1.35,6.19340645e-08,7.52835588e-07,6.81172583e-05,0.000190785689,0.000290133624,0.00036688817
1.4,6.17663066e-08,6.66663821e-07,5.95982282e-05,0.000182852412,0.000282992755,0.000360546379
1.45,6.16162662e-08,6.03517461e-07,5.12019839e-05,0.000174940159,0.000275870139,0.000354219679
1.5,6.14813116e-08,5.5593053e-07,4.30038407e-05,0.000167048763,0.000268765692,0.000347908018
1.55,6.13592999e-08,5.19186456e-07,3.51321967e-05,0.000159178048,0.000261679323,0.000341611344
1.6,6.12484701e-08,4.90207571e-07,2.77878083e-05,0.000151327835,0.000254610939,0.000335329603
1.65,6.11473626e-08,4.6692604e-07,2.12372944e-05,0.000143497948,0.000247560442,0.000329062742
1.7,6.10547588e-08,4.47915487e-07,1.57456495e-05,0.000135688232,0.000240527729,0.000322810706
1.75,6.09696335e-08,4.32168487e-07,1.14571508e-05,0.000127898573,0.00023351269,0.00031657344
1.8,6.08911186e-08,4.18958219e-07,8.31927813e-06,0.000120128953,0.000226515209,0.000310350888
1.85,6.08184743e-08,4.07750166e-07,6.12572265e-06,0.000112379529,0.000219535161,0.000304142992
1.9,6.07510669e-08,3.98144368e-07,4.6247653e-06,0.000104650785,0.000212572409,0.000297949694
1.95,6.06883499e-08,3.89836816e-07,3.59857585e-06,9.69437862e-05,0.000205626806,0.000291770932
2.0,6.06298502e-08,3.82593111e-07,2.88797597e-06,8.92606455e-05,0.000198698192,0.000285606644
2.05,6.0575156e-08,3.76230159e-07,2.38597173e-06,8.16053254e-05,0.000191786387,0.000279456767
2.1,6.05239074e-08,3.7060323e-07,2.02312327e-06,7.39850563e-05,0.000184891196,0.000273321234
2.15,6.04757882e-08,3.65596663e-07,1.75470309e-06,6.64127896e-05,0.000178012397,0.000267199975
2.2,6.043052e-08,3.61117095e-07,1.55168596e-06,5.89113362e-05,0.000171149744,0.000261092918
2.25,6.03878562e-08,3.57088461e-07,1.39494867e-06,5.15199726e-05,0.00016430296,0.000254999988
2.3,6.0347578e-08,3.53448259e-07,1.27165411e-06,4.43039091e-05,0.000157471732,0.000248921104
2.35,6.03094904e-08,3.50144719e-07,1.17301175e-06,3.73650769e-05,0.000150655704,0.000242856183
2.4,6.02734192e-08,3.47134645e-07,1.09288156e-06,3.08480475e-05,0.000143854478,0.000236805134
2.45,6.02392081e-08,3.44381747e-07,1.02689219e-06,2.49290482e-05,0.000137067603,0.00023076786
2.5,6.02067167e-08,3.41855343e-07,9.71874913e-07,1.97777891e-05,0.000130294583,0.00022474426
2.55,6.01758182e-08,3.39529331e-07,9.25493794e-07,1.55016334e-05,0.000123534873,0.000218734221
2.6,6.01463983e-08,3.37381389e-07,8.8599968e-07,1.21066896e-05,0.000116787906,0.000212737621
2.65,6.01183531e-08,3.3539232e-07,8.5206374e-07,9.50422289e-06,0.000110053125,0.000206754327
2.7,6.00915885e-08,3.33545536e-07,8.22662888e-07,7.55265107e-06,0.000103330067,0.000200784194
2.75,6.00660188e-08,3.31826637e-07,7.96999653e-07,6.10257848e-06,9.6618512e-05,0.00019482706
2.8,6.00415655e-08,3.30223068e-07,7.744453e-07,5.02407854e-06,8.99187543e-05,0.000188882744
2.85,6.00181573e-08,3.28723834e-07,7.54498872e-07,4.21557273e-06,8.32320889e-05,0.000182951045
2.9,5.99957285e-08,3.27319272e-07,7.367573e-07,3.60215327e-06,7.65616562e-05,0.000177031736
2.95,5.9974219e-08,3.26000858e-07,7.2089333e-07,3.13017354e-06,6.99138771e-05,0.000171124562
3.0,5.99535735e-08,3.24761044e-07,7.0663901e-07,2.76164564e-06,6.33008107e-05,0.00016522923
3.05,5.9933741e-08,3.23593126e-07,6.93773221e-07,2.4696804e-06,5.67438323e-05,0.000159345407
3.1,5.99146746e-08,3.2249113e-07,6.82112154e-07,2.2351287e-06,5.02788963e-05,0.000153472713
3.15,5.98963308e-08,3.21449716e-07,6.7150197e-07,2.04421994e-06,4.39629867e-05,0.00014761071
3.2,5.98786694e-08,3.20464101e-07,6.61813084e-07,1.886935e-06,3.78797278e-05,0.000141758893
3.25,5.98616532e-08,3.19529982e-07,6.52935696e-07,1.75589243e-06,3.21396384e-05,0.00013591668
3.3,5.98452476e-08,3.18643484e-07,6.44776237e-07,1.64558444e-06,2.68690903e-05,0.000130083402
3.35,5.98294203e-08,3.17801106e-07,6.37254557e-07,1.5518496e-06,2.21856309e-05,0.000124258289
3.4,5.98141416e-08,3.16999678e-07,6.30301653e-07,1.47150549e-06,1.81672733e-05,0.000118440466
3.45,5.97993834e-08,3.16236325e-07,6.23857843e-07,1.40209024e-06,1.48317482e-05,0.000112628947
3.5,5.97851199e-08,3.15508428e-07,6.17871279e-07,1.3416784e-06,1.21372913e-05,0.000106822643
3.55,5.97713266e-08,3.14813604e-07,6.12296729e-07,1.28874857e-06,1.00017805e-05,0.0001010204
3.6,5.97579809e-08,3.14149675e-07,6.07094577e-07,1.24208686e-06,8.3271682e-06,9.52210691e-05
3.65,5.97450615e-08,3.13514649e-07,6.02229996e-07,1.20071593e-06,7.01834381e-06,8.94236574e-05
3.7,5.97325483e-08,3.12906699e-07,5.97672262e-07,1.16384218e-06,5.99311034e-06,8.36276043e-05
3.75,5.97204227e-08,3.12324149e-07,5.93394174e-07,1.13081603e-06,5.1851306e-06,7.78332695e-05
3.8,5.97086671e-08,3.11765456e-07,5.89371579e-07,1.10110178e-06,4.54296783e-06,7.20427617e-05
3.85,5.9697265e-08,3.11229199e-07,5.85582961e-07,1.07425455e-06,4.0276012e-06,6.62612915e-05
3.9,5.96862007e-08,3.10714066e-07,5.82009098e-07,1.04990243e-06,3.60972537e-06,6.04992714e-05
3.95,5.96754596e-08,3.10218845e-07,5.78632769e-07,1.02773259e-06,3.26738516e-06,5.47753595e-05
4.0,5.96650279e-08,3.09742415e-07,5.75438508e-07,1.00748032e-06,2.9840919e-06,4.91204149e-05
4.05,5.96548926e-08,3.09283736e-07,5.72412387e-07,9.88920432e-07,2.74739431e-06,4.35817401e-05
4.1,5.96450413e-08,3.08841843e-07,5.69541832e-07,9.71860354e-07,2.54782095e-06,3.82259275e-05
4.15,5.96354624e-08,3.08415839e-07,5.66815468e-07,9.56134589e-07,2.37810676e-06,3.31374791e-05
4.2,5.96261449e-08,3.0800489e-07,5.6422298e-07,9.41600258e-07,2.23262969e-06,2.84103501e-05
4.25,5.96170783e-08,3.07608219e-07,5.61754995e-07,9.28133465e-07,2.10699984e-06,2.41321784e-05
4.3,5.96082528e-08,3.072251e-07,5.59402978e-07,9.15626332e-07,1.99775881e-06,2.03658398e-05
4.35,5.9599659e-08,3.06854856e-07,5.5715914e-07,9.03984554e-07,1.9021582e-06,1.71363365e-05
4.4,5.9591288e-08,3.06496855e-07,5.55016365e-07,8.93125389e-07,1.81799546e-06,1.44288838e-05
4.45,5.95831313e-08,3.06150503e-07,5.52968134e-07,8.82975978e-07,1.74349121e-06,1.2197613e-05
4.5,5.9575181e-08,3.05815246e-07,5.51008468e-07,8.7347195e-07,1.67719684e-06,1.03792448e-05
4.55,5.95674295e-08,3.05490564e-07,5.49131872e-07,8.64556251e-07,1.61792438e-06,8.90579048e-06
4.6,5.95598694e-08,3.05175966e-07,5.47333289e-07,8.56178155e-07,1.56469285e-06,7.71319609e-06
4.65,5.95524939e-08,3.04870996e-07,5.45608059e-07,8.48292434e-07,1.5166868e-06,6.74570681e-06
4.7,5.95452964e-08,3.04575219e-07,5.43951877e-07,8.40858647e-07,1.4732242e-06,5.95712746e-06
4.75,5.95382706e-08,3.04288231e-07,5.42360767e-07,8.33840538e-07,1.43373122e-06,5.31032784e-06
4.8,5.95314106e-08,3.04009648e-07,5.40831043e-07,8.27205519e-07,1.39772233e-06,4.77598904e-06
4.85,5.95247107e-08,3.03739108e-07,5.39359292e-07,8.20924229e-07,1.36478461e-06,4.33117314e-06
4.9,5.95181654e-08,3.03476271e-07,5.37942343e-07,8.14970152e-07,1.33456504e-06,3.9579969e-06
4.95,5.95117695e-08,3.03220815e-07,5.36577251e-07,8.09319287e-07,1.30676045e-06,3.64251241e-06
5.0,5.95055181e-08,3.02972436e-07,5.35261273e-07,8.03949864e-07,1.28110926e-06,3.37380884e-06
5.05,5.94994064e-08,3.02730845e-07,5.33991855e-07,7.98842096e-07,1.25738484e-06,3.14331134e-06
5.1,5.94934299e-08,3.02495771e-07,5.32766614e-07,7.93977959e-07,1.23539e-06,2.94424251e-06
5.15,5.94875841e-08,3.02266954e-07,5.31583324e-07,7.89341011e-07,1.21495255e-06,2.77121166e-06
5.2,5.94818651e-08,3.02044149e-07,5.30439906e-07,7.84916217e-07,1.19592155e-06,2.61990249e-06
5.25,5.94762686e-08,3.01827126e-07,5.29334412e-07,7.80689811e-07,1.17816421e-06,2.48683559e-06
5.3,5.9470791e-08,3.01615663e-07,5.28265019e-07,7.76649164e-07,1.16156335e-06,2.36918718e-06
5.35,5.94654286e-08,3.0140955e-07,5.27230016e-07,7.72782672e-07,1.14601524e-06,2.26465035e-06
5.4,5.94601778e-08,3.01208589e-07,5.26227799e-07,7.69079657e-07,1.13142772e-06,2.17132826e-06
5.45,5.94550353e-08,3.0101259e-07,5.2525686e-07,7.65530277e-07,1.11771875e-06,2.08765149e-06
5.5,5.94499979e-08,3.00821373e-07,5.2431578e-07,7.62125445e-07,1.10481502e-06,2.01231368e-06
5.55,5.94450623e-08,3.00634766e-07,5.23403226e-07,7.58856765e-07,1.09265092e-06,1.94422119e-06
5.6,5.94402257e-08,3.00452606e-07,5.2251794e-07,7.55716462e-07,1.08116752e-06,1.88245336e-06
5.65,5.94354851e-08,3.00274736e-07,5.21658737e-07,7.52697332e-07,1.0703118e-06,1.82623109e-06
5.7,5.94308378e-08,3.00101009e-07,5.20824499e-07,7.49792688e-07,1.06003593e-06,1.77489174e-06
5.75,5.94262811e-08,2.99931281e-07,5.2001417e-07,7.46996316e-07,1.05029666e-06,1.72786899e-06
5.8,5.94218125e-08,2.99765418e-07,5.19226752e-07,7.44302436e-07,1.04105482e-06,1.68467667e-06
5.85,5.94174295e-08,2.99603289e-07,5.18461302e-07,7.41705663e-07,1.03227484e-06,1.64489554e-06
5.9,5.94131297e-08,2.99444772e-07,5.17716926e-07,7.39200976e-07,1.02392435e-06,1.6081626e-06
5.95,5.94089108e-08,2.99289746e-07,5.1699278e-07,7.36783689e-07,1.01597388e-06,1.5741623e-06
6.0,5.94047706e-08,2.991381e-07,5.16288061e-07,7.34449422e-07,1.00839648e-06,1.54261928e-06
6.05,5.94007071e-08,2.98989725e-07,5.15602009e-07,7.32194076e-07,1.00116752e-06,1.5132924e-06
6.1,5.93967181e-08,2.98844517e-07,5.14933904e-07,7.30013815e-07,9.94264445e-07,1.48596975e-06
6.15,5.93928017e-08,2.98702375e-07,5.14283059e-07,7.27905042e-07,9.87666521e-07,1.46046448e-06
6.2,5.93889559e-08,2.98563206e-07,5.13648824e-07,7.25864383e-07,9.81354709e-07,1.43661134e-06
6.25,5.93851789e-08,2.98426916e-07,5.1303058e-07,7.23888668e-07,9.75311476e-07,1.41426375e-06
6.3,5.9381469e-08,2.98293419e-07,5.12427739e-07,7.2197492e-07,9.69520655e-07,1.39329129e-06
6.35,5.93778244e-08,2.9816263e-07,5.11839739e-07,7.20120335e-07,9.63967317e-07,1.37357758e-06
6.4,5.93742435e-08,2.98034468e-07,5.11266048e-07,7.18322276e-07,9.5863766e-07,1.35501856e-06
6.45,5.93707246e-08,2.97908855e-07,5.10706155e-07,7.16578256e-07,9.53518901e-07,1.33752089e-06
6.5,5.93672662e-08,2.97785717e-07,5.10159577e-07,7.1488593e-07,9.48599193e-07,1.32100068e-06
6.55,5.93638668e-08,2.97664981e-07,5.0962585e-07,7.13243085e-07,9.43867535e-07,1.30538231e-06
6.6,5.9360525e-08,2.97546579e-07,5.09104532e-07,7.11647631e-07,9.39313707e-07,1.29059752e-06
