vds,vb1,vb2,vb3,vb4,vb5,vb6
0.0,0.000341479976,0.00152307116,0.00237234541,0.00303133737,0.00349537465,0.00381507204
0.05,0.000227611281,0.00138945677,0.002229382,0.00288632327,0.00335534085,0.00368387963
0.1,0.000126975534,0.00126150402,0.00209209194,0.0027465196,0.00321980075,0.00355643339
0.15,6.03394248e-05,0.0011389256,0.00196020569,0.00261170832,0.00308858985,0.00343261305
0.2,3.50148351e-05,0.00102143702,0.00183345322,0.00248167198,0.0029615448,0.00331229959
0.25,2.6243589e-05,0.000908759057,0.0017115621,0.00235619068,0.00283850096,0.00319537358
0.3,2.20298317e-05,0.000800616934,0.00159426022,0.0022350419,0.00271929137,0.00308171427
0.35,1.94879978e-05,0.000696722348,0.00148128029,0.00211800281,0.00260374701,0.00297119918
0.4,1.77615528e-05,0.000596731084,0.00137236226,0.00200485394,0.00249169829,0.00286370442
0.45,1.65055315e-05,0.000500229218,0.00126724972,0.00189538308,0.00238297733,0.00275910559
0.5,1.55495588e-05,0.000407128561,0.00116567556,0.00178938824,0.00227742046,0.00265727899
0.55,1.47979849e-05,0.000319517087,0.0010673298,0.00168667854,0.00217487072,0.00255810313
0.6,1.41923394e-05,0.000243777551,0.000971798066,0.00158707205,0.00207517979,0.0024614602
0.65,1.36946455e-05,0.000186050162,0.000878452935,0.00149038926,0.00197820915,0.00236723749
0.7,1.32790834e-05,0.000145764226,0.000786287868,0.00139644026,0.00188383014,0.00227532855
0.75,1.29274553e-05,0.000118226736,0.000693771238,0.00130500235,0.00179192254,0.00218563403
0.8,1.26265544e-05,9.90227348e-05,0.000599154382,0.00121578255,0.00170237137,0.00209806199
0.85,1.23665592e-05,8.51743638e-05,0.000502268172,0.00112835585,0.00161506131,0.00201252782
0.9,1.21400137e-05,7.48415149e-05,0.000407649626,0.00104206649,0.00152986762,0.00192895339
0.95,1.19411553e-05,6.68926111e-05,0.000323941623,0.000955885175,0.00144664216,0.00184726553
1.0,1.17654605e-05,6.06152672e-05,0.00025722514,0.000868261512,0.00136519155,0.00176739354
1.05,1.16093297e-05,5.55466359e-05,0.000207430982,0.000777183255,0.00128524307,0.00168926544
1.1,1.14698633e-05,5.13762027e-05,0.000171062352,0.000681013814,0.0012063916,0.00161280248
1.15,1.13447e-05,4.78893245e-05,0.000144332369,0.000580686265,0.00112801924,0.00153791115
1.2,1.12318979e-05,4.49335667e-05,0.000124312305,0.000481815886,0.00104918433,0.00146447132
1.25,1.11298461e-05,4.23980362e-05,0.000108973927,0.00039277749,0.000968506241,0.00139231854
1.3,1.10371969e-05,4.02003181e-05,9.69558262e-05,0.000319308556,0.000884168476,0.0013212172
1.35,1.09528148e-05,3.82779881e-05,8.7343001e-05,0.000262086282,0.000794364834,0.00125082013
1.4,1.08757366e-05,3.65829583e-05,7.95113392e-05,0.000218605063,0.000698633424,0.00118060916
1.45,1.08051398e-05,3.50776207e-05,7.30266377e-05,0.000185617955,0.000599777354,0.00110981419
1.5,1.07403184e-05,3.37321625e-05,6.75804086e-05,0.000160319831,0.000504215049,0.00103732391
1.55,1.06806628e-05,3.25226598e-05,6.2948944e-05,0.000140603,0.000418980073,0.000961649741
1.6,1.06256444e-05,3.14297019e-05,5.89668621e-05,0.000124964,0.000348023817,0.000881111363
1.65,1.05748021e-05,3.0437381e-05,5.55097069e-05,0.000112345365,0.000291477288,0.000794531643
1.7,1.05277327e-05,2.95325403e-05,5.2482285e-05,0.000102000759,0.000247269378,0.000702556493
1.75,1.04840814e-05,2.87042073e-05,4.98106977e-05,9.3397337e-05,0.000212779813,0.000608805027
1.8,1.04435354e-05,2.79431606e-05,4.74367975e-05,8.61489701e-05,0.000185665788,0.000519193159
1.85,1.04058178e-05,2.72415953e-05,4.53142649e-05,7.99713378e-05,0.000164086498,0.00043924081
1.9,1.03706823e-05,2.65928626e-05,4.34057861e-05,7.46517351e-05,0.000146670747,0.000371782988
1.95,1.03379096e-05,2.59912639e-05,4.1680992e-05,7.00285931e-05,0.000132416348,0.000316839658
2.0,1.03073035e-05,2.54318878e-05,4.01149325e-05,6.5977417e-05,0.000120592307,0.000272815203
2.05,1.02786882e-05,2.49104791e-05,3.86869315e-05,6.24009935e-05,0.000110661994,0.000237643143
2.1,1.02519056e-05,2.44233329e-05,3.73797181e-05,5.92224718e-05,0.00010222728,0.000209398797
2.15,1.02268132e-05,2.39672093e-05,3.61787598e-05,5.63804037e-05,9.49891273e-05,0.000186504531
2.2,1.02032822e-05,2.35392622e-05,3.50717445e-05,5.38251396e-05,8.87200059e-05,0.000167738495
2.25,1.01811959e-05,2.31369818e-05,3.40481755e-05,5.1516173e-05,8.32445757e-05,0.000152176575
2.3,1.01604486e-05,2.27581468e-05,3.30990513e-05,4.9420161e-05,7.84260444e-05,0.000139124577
2.35,1.01409439e-05,2.24007834e-05,3.22166103e-05,4.75094299e-05,7.41564441e-05,0.000128059899
2.4,1.0122594e-05,2.20631326e-05,3.13941259e-05,4.57608354e-05,7.03496222e-05,0.000118586401
2.45,1.01053188e-05,2.17436216e-05,3.06257404e-05,4.41548837e-05,6.69361283e-05,0.000110401009
2.5,1.00890448e-05,2.14408398e-05,2.99063302e-05,4.26750472e-05,6.38594423e-05,0.000103269447
2.55,1.00737049e-05,2.11535183e-05,2.92313947e-05,4.13072275e-05,6.1073159e-05,9.70086861e-05
2.6,1.00592372e-05,2.08805132e-05,2.8596965e-05,4.00393287e-05,5.85388632e-05,9.14742242e-05
2.65,1.0045585e-05,2.06207899e-05,2.7999528e-05,3.88609183e-05,5.62245108e-05,8.65508136e-05
2.7,1.00326958e-05,2.03734108e-05,2.74359631e-05,3.77629526e-05,5.41031806e-05,8.21456454e-05
2.75,1.00205214e-05,2.01375241e-05,2.69034895e-05,3.67375557e-05,5.21521054e-05,7.8183294e-05
2.8,1.00090172e-05,1.99123544e-05,2.63996205e-05,3.57778379e-05,5.03519113e-05,7.46019317e-05
2.85,9.99814183e-06,1.96971939e-05,2.59221269e-05,3.48777474e-05,4.86860164e-05,7.1350467e-05
2.9,9.98785698e-06,1.94913958e-05,2.54690037e-05,3.40319479e-05,4.71401513e-05,6.838636e-05
2.95,9.97812714e-06,1.92943674e-05,2.50384433e-05,3.32357161e-05,4.57019745e-05,6.56739397e-05
3.0,9.96891927e-06,1.91055649e-05,2.46288117e-05,3.24848574e-05,4.43607603e-05,6.31830963e-05
3.05,9.96020265e-06,1.89244881e-05,2.42386282e-05,3.17756337e-05,4.31071463e-05,6.0888256e-05
3.1,9.95194865e-06,1.87506767e-05,2.38665479e-05,3.11047039e-05,4.19329249e-05,5.87675714e-05
3.15,9.94413054e-06,1.85837057e-05,2.35113466e-05,3.04690726e-05,4.08308726e-05,5.68022761e-05
3.2,9.9367234e-06,1.84231828e-05,2.31719077e-05,2.98660469e-05,3.97946078e-05,5.49761679e-05
3.25,9.9297039e-06,1.82687447e-05,2.28472103e-05,2.92931992e-05,3.88184729e-05,5.32751909e-05
3.3,9.9230502e-06,1.8120055e-05,2.25363196e-05,2.87483357e-05,3.78974354e-05,5.16870956e-05
3.35,9.91674184e-06,1.79768012e-05,2.22383779e-05,2.82294689e-05,3.70270041e-05,5.02011612e-05
3.4,9.91075963e-06,1.78386934e-05,2.19525967e-05,2.77347941e-05,3.62031591e-05,4.88079671e-05
3.45,9.90508555e-06,1.77054613e-05,2.16782502e-05,2.7262669e-05,3.5422292e-05,4.74992034e-05
3.5,9.89970264e-06,1.75768536e-05,2.14146689e-05,2.68115958e-05,3.46811549e-05,4.62675138e-05
3.55,9.89459496e-06,1.74526356e-05,2.11612344e-05,2.6380206e-05,3.39768167e-05,4.51063635e-05
3.6,9.88974747e-06,1.73325882e-05,2.09173746e-05,2.59672463e-05,3.33066255e-05,4.40099292e-05
3.65,9.88514601e-06,1.72165066e-05,2.06825596e-05,2.55715673e-05,3.26681767e-05,4.29730053e-05
3.7,9.8807772e-06,1.71041991e-05,2.04562975e-05,2.51921128e-05,3.20592848e-05,4.19909249e-05
3.75,9.87662841e-06,1.69954861e-05,2.02381316e-05,2.48279105e-05,3.14779592e-05,4.10594924e-05
3.8,9.87268768e-06,1.68901992e-05,2.00276369e-05,2.4478064e-05,3.0922383e-05,4.0174926e-05
3.85,9.86894368e-06,1.67881801e-05,1.98244178e-05,2.41417455e-05,3.03908946e-05,3.93338083e-05
3.9,9.8653857e-06,1.66892803e-05,1.96281049e-05,2.38181896e-05,2.98819715e-05,3.85330437e-05
3.95,9.86200357e-06,1.65933601e-05,1.94383539e-05,2.3506687e-05,2.93942164e-05,3.77698215e-05
4.0,9.85878763e-06,1.65002878e-05,1.92548426e-05,2.32065801e-05,2.89263442e-05,3.70415846e-05
4.05,9.85572869e-06,1.64099394e-05,1.90772695e-05,2.29172582e-05,2.84771715e-05,3.63460011e-05
4.1,9.85281803e-06,1.63221981e-05,1.89053525e-05,2.26381531e-05,2.80456064e-05,3.56809406e-05
4.15,9.85004734e-06,1.62369533e-05,1.87388268e-05,2.2368736e-05,2.763064e-05,3.50444529e-05
4.2,9.84740869e-06,1.61541009e-05,1.85774439e-05,2.21085138e-05,2.7231339e-05,3.44347494e-05
4.25,9.84489454e-06,1.60735423e-05,1.84209703e-05,2.18570262e-05,2.68468382e-05,3.38501872e-05
4.3,9.84249766e-06,1.59951842e-05,1.82691867e-05,2.16138432e-05,2.64763351e-05,3.3289254e-05
4.35,9.84021118e-06,1.59189384e-05,1.81218862e-05,2.13785624e-05,2.61190838e-05,3.2750556e-05
4.4,9.83802848e-06,1.58447211e-05,1.79788743e-05,2.11508071e-05,2.57743903e-05,3.22328064e-05
4.45,9.83594325e-06,1.57724531e-05,1.78399673e-05,2.09302241e-05,2.54416085e-05,3.17348153e-05
4.5,9.83394932e-06,1.5702059e-05,1.77049922e-05,2.07164821e-05,2.51201353e-05,3.1255481e-05
4.55,9.83204085e-06,1.56334675e-05,1.75737852e-05,2.05092697e-05,2.4809408e-05,3.0793782e-05
4.6,9.83021225e-06,1.55666107e-05,1.74461917e-05,2.03082942e-05,2.45089005e-05,3.03487695e-05
4.65,9.82845818e-06,1.55014239e-05,1.73220655e-05,2.01132805e-05,2.42181204e-05,2.99195618e-05
4.7,9.82677347e-06,1.54378459e-05,1.72012681e-05,1.99239689e-05,2.39366065e-05,2.95053379e-05
4.75,9.82515315e-06,1.53758181e-05,1.70836684e-05,1.97401151e-05,2.36639265e-05,2.91053326e-05
4.8,9.82359245e-06,1.53152849e-05,1.69691418e-05,1.95614884e-05,2.33996743e-05,2.8718832e-05
4.85,9.82208674e-06,1.52561933e-05,1.68575706e-05,1.9387871e-05,2.31434688e-05,2.83451693e-05
4.9,9.82063156e-06,1.51984927e-05,1.67488427e-05,1.92190571e-05,2.28949512e-05,2.79837206e-05
4.95,9.8192226e-06,1.51421348e-05,1.66428518e-05,1.9054852e-05,2.2653784e-05,2.7633902e-05
5.0,9.81785571e-06,1.50870736e-05,1.65394966e-05,1.88950716e-05,2.24196494e-05,2.72951665e-05
5.05,9.81652683e-06,1.50332651e-05,1.6438681e-05,1.87395414e-05,2.21922475e-05,2.69670006e-05
5.1,9.81523205e-06,1.49806673e-05,1.63403136e-05,1.8588096e-05,2.19712953e-05,2.66489224e-05
5.15,9.81396759e-06,1.492924e-05,1.62443071e-05,1.84405787e-05,2.17565259e-05,2.6340479e-05
5.2,9.81272974e-06,1.48789446e-05,1.61505784e-05,1.82968406e-05,2.15476866e-05,2.60412441e-05
5.25,9.81151493e-06,1.48297446e-05,1.60590484e-05,1.81567404e-05,2.13445387e-05,2.57508167e-05
5.3,9.81031967e-06,1.47816046e-05,1.59696415e-05,1.80201437e-05,2.11468561e-05,2.54688185e-05
5.35,9.80914055e-06,1.47344909e-05,1.58822857e-05,1.78869229e-05,2.09544247e-05,2.51948932e-05
5.4,9.80797428e-06,1.46883712e-05,1.5796912e-05,1.77569563e-05,2.07670414e-05,2.49287039e-05
5.45,9.80681761e-06,1.46432144e-05,1.57134547e-05,1.76301283e-05,2.05845139e-05,2.4669933e-05
5.5,9.8056674e-06,1.45989909e-05,1.56318509e-05,1.75063285e-05,2.04066593e-05,2.44182796e-05
5.55,9.80452056e-06,1.45556721e-05,1.55520404e-05,1.7385452e-05,2.0233304e-05,2.41734596e-05
5.6,9.80337407e-06,1.45132307e-05,1.54739656e-05,1.72673984e-05,2.00642831e-05,2.39352036e-05
5.65,9.80222497e-06,1.44716403e-05,1.53975715e-05,1.71520722e-05,1.98994396e-05,2.37032566e-05
5.7,9.80107038e-06,1.44308757e-05,1.53228052e-05,1.7039382e-05,1.97386242e-05,2.34773767e-05
5.75,9.79990744e-06,1.43909125e-05,1.52496162e-05,1.69292404e-05,1.95816947e-05,2.32573344e-05
5.8,9.79873337e-06,1.43517275e-05,1.51779558e-05,1.68215642e-05,1.94285157e-05,2.30429118e-05
5.85,9.79754542e-06,1.43132981e-05,1.51077777e-05,1.67162736e-05,1.92789578e-05,2.28339019e-05
5.9,9.79634091e-06,1.42756028e-05,1.50390371e-05,1.66132922e-05,1.9132898e-05,2.2630108e-05
5.95,9.79511717e-06,1.42386207e-05,1.49716912e-05,1.65125469e-05,1.89902186e-05,2.24313428e-05
6.0,9.79387159e-06,1.42023318e-05,1.49056988e-05,1.64139678e-05,1.88508072e-05,2.22374281e-05
6.05,9.79260159e-06,1.41667167e-05,1.48410203e-05,1.63174878e-05,1.87145566e-05,2.20481943e-05
6.1,9.79130464e-06,1.4131757e-05,1.47776178e-05,1.62230426e-05,1.85813642e-05,2.18634796e-05
6.15,9.78997821e-06,1.40974346e-05,1.47154546e-05,1.61305705e-05,1.84511318e-05,2.16831296e-05
6.2,9.78861983e-06,1.40637322e-05,1.46544956e-05,1.60400124e-05,1.83237655e-05,2.15069973e-05
6.25,9.78722704e-06,1.40306333e-05,1.45947069e-05,1.59513114e-05,1.81991752e-05,2.13349422e-05
6.3,9.78579742e-06,1.39981216e-05,1.45360559e-05,1.5864413e-05,1.8077275e-05,2.11668299e-05
6.35,9.78432856e-06,1.39661816e-05,1.44785112e-05,1.57792646e-05,1.79579821e-05,2.10025323e-05
6.4,9.78281808e-06,1.39347984e-05,1.44220426e-05,1.5695816e-05,1.78412174e-05,2.08419267e-05
6.45,9.78126362e-06,1.39039574e-05,1.43666209e-05,1.56140186e-05,1.77269049e-05,2.06848956e-05
6.5,9.77966284e-06,1.38736447e-05,1.4312218e-05,1.55338258e-05,1.76149717e-05,2.05313267e-05
6.55,9.77801341e-06,1.38438467e-05,1.42588068e-05,1.54551927e-05,1.75053477e-05,2.03811124e-05
6.6,9.77631302e-06,1.38145504e-05,1.4206361e-05,1.5378076e-05,1.73979656e-05,2.02341495e-05
