vds,vb1,vb2,vb3,vb4,vb5,vb6
0.0,0.000162466694,0.000514657869,0.000786926986,0.000987892723,0.0011345004,0.00122869875
0.05,0.000134712732,0.000482991949,0.000754740718,0.000956808387,0.00110539556,0.00120213911
0.1,0.000107608122,0.000451952155,0.00072315661,0.000926255171,0.00107673839,0.00117594431
0.15,8.13158418e-05,0.000421524192,0.000692161045,0.000896222124,0.0010485206,0.00115010836
0.2,5.63644777e-05,0.000391694463,0.000661740751,0.00086669854,0.00102073408,0.00112462536
0.25,3.43928234e-05,0.000362450218,0.000631882794,0.000837673949,0.000993370875,0.0010994895
0.3,1.87335781e-05,0.000333779801,0.000602574571,0.000809138109,0.000966423191,0.00107469508
0.35,1.07487886e-05,0.000305673085,0.000573803802,0.000781080999,0.000939883379,0.00105023652
0.4,7.32031611e-06,0.000278122243,0.000545558534,0.000753492816,0.000913743936,0.00102610829
0.45,5.68061423e-06,0.000251123181,0.000517827132,0.000726363966,0.000887997503,0.001002305
0.5,4.73751154e-06,0.000224678293,0.000490598287,0.000699685066,0.000862636859,0.000978821312
0.55,4.11378789e-06,0.000198802041,0.000463861009,0.000673446933,0.000837654923,0.000955652004
0.6,3.662747e-06,0.000173532668,0.000437604632,0.000647640586,0.00081304475,0.000932791929
0.65,3.31735778e-06,0.000148957486,0.000411818812,0.000622257236,0.000788799528,0.000910236032
0.7,3.0424372e-06,0.00012526677,0.000386493523,0.00059728828,0.000764912579,0.000887979344
0.75,2.81745192e-06,0.00010285613,0.000361619066,0.000572725285,0.000741377355,0.000866016982
0.8,2.629436e-06,8.24534461e-05,0.000337186071,0.000548559981,0.000718187434,0.000844344148
0.85,2.46970587e-06,6.50611876e-05,0.000313185525,0.000524784232,0.000695336519,0.000822956129
0.9,2.33217942e-06,5.14169069e-05,0.000289608849,0.00050139001,0.000672818432,0.000801848293
0.95,2.21244483e-06,4.14015889e-05,0.000266448104,0.000478369352,0.000650627107,0.000781016095
1.0,2.1072108e-06,3.42295952e-05,0.000243696574,0.000455714303,0.000628756583,0.000760455066
1.05,2.01396481e-06,2.90386431e-05,0.000221350368,0.000433416832,0.00060720099,0.000740160817
1.1,1.93075156e-06,2.51795221e-05,0.000199412802,0.000411468705,0.000585954541,0.000720129038
1.15,1.85602424e-06,2.22238786e-05,0.000177906042,0.000389861308,0.000565011511,0.000700355488
1.2,1.78854174e-06,1.98974426e-05,0.000156899879,0.000368585369,0.000544366213,0.000680835999
1.25,1.72729579e-06,1.8022557e-05,0.000136571876,0.000347630547,0.000524012965,0.000661566467
1.3,1.67145832e-06,1.64811016e-05,0.000117293063,0.000326984801,0.000503946055,0.000642542845
1.35,1.62034251e-06,1.5192203e-05,9.96515025e-05,0.00030663344,0.000484159673,0.000623761142
1.4,1.57337376e-06,1.40989031e-05,8.42689199e-05,0.000286557723,0.000464647842,0.000605217408
1.45,1.53006743e-06,1.31600421e-05,7.14785735e-05,0.000266732921,0.0004454043,0.000586907726
1.5,1.49001188e-06,1.23451864e-05,6.11890013e-05,0.000247126049,0.000426422345,0.000568828196
1.55,1.4528551e-06,1.16313714e-05,5.30284595e-05,0.000227694461,0.000407694604,0.000550974922
1.6,1.41829427e-06,1.10009545e-05,4.65536202e-05,0.000208389253,0.000389212711,0.000533343982
1.65,1.38606742e-06,1.04401634e-05,4.13699287e-05,0.000189173078,0.000370966815,0.000515931402
1.7,1.35594673e-06,9.93809346e-06,3.71663862e-05,0.000170068544,0.000352944872,0.000498733118
1.75,1.32773316e-06,9.48600002e-06,3.37100144e-05,0.000151245078,0.000335131594,0.000481744916
1.8,1.30125198e-06,9.07678982e-06,3.08292252e-05,0.000133099727,0.000317506908,0.000464962365
1.85,1.27634921e-06,8.70464942e-06,2.8397678e-05,0.00011621706,0.000300043759,0.000448380718
1.9,1.25288858e-06,8.36476944e-06,2.63216111e-05,0.0001011554,0.000282705139,0.000431994772
1.95,1.2307491e-06,8.05313703e-06,2.45306286e-05,8.82153932e-05,0.00026544054,0.000415798677
2.0,1.20982292e-06,7.76637766e-06,2.29711851e-05,7.73826059e-05,0.000248183007,0.000399785667
2.05,1.19001362e-06,7.50163322e-06,2.1602009e-05,6.84304491e-05,0.000230850415,0.000383947672
2.1,1.17123474e-06,7.25646693e-06,2.03908777e-05,6.10525397e-05,0.000213359068,0.000368274774
2.15,1.1534085e-06,7.02878851e-06,1.9312324e-05,5.49486496e-05,0.000195662585,0.000352754409
2.2,1.13646476e-06,6.81679478e-06,1.83459892e-05,4.98610852e-05,0.000177824237,0.000337370245
2.25,1.1203401e-06,6.61892201e-06,1.74754243e-05,4.55819959e-05,0.000160099032,0.00032210058
2.3,1.10497701e-06,6.4338075e-06,1.66872079e-05,4.19484196e-05,0.000142951068,0.000306916132
2.35,1.09032325e-06,6.26025827e-06,1.5970289e-05,3.88339305e-05,0.000126939306,0.000291777151
2.4,1.07633124e-06,6.09722547e-06,1.53154911e-05,3.61405353e-05,0.000112522383,0.000276630032
2.45,1.06295756e-06,5.94378327e-06,1.47151352e-05,3.37919481e-05,9.99248889e-05,0.000261404372
2.5,1.05016248e-06,5.79911132e-06,1.41627484e-05,3.17283576e-05,8.91364615e-05,0.000246013067
2.55,1.03790963e-06,5.66248016e-06,1.36528382e-05,2.99024713e-05,7.99939667e-05,0.000230360985
2.6,1.0261656e-06,5.53323901e-06,1.31807148e-05,2.8276557e-05,7.22701003e-05,0.000214370983
2.65,1.01489967e-06,5.4108054e-06,1.27423503e-05,2.68202369e-05,6.5732308e-05,0.000198034571
2.7,1.00408353e-06,5.29465646e-06,1.2334267e-05,2.55088363e-05,6.01714015e-05,0.000181478847
2.75,9.93691075e-07,5.1843215e-06,1.19534468e-05,2.43221423e-05,5.54108113e-05,0.000165010052
2.8,9.8369816e-07,5.07937564e-06,1.15972579e-05,2.32434624e-05,5.13062209e-05,0.000149078839
2.85,9.74082446e-07,4.97943441e-06,1.12633955e-05,2.22589058e-05,4.774145e-05,0.000134158564
2.9,9.64823222e-07,4.884149e-06,1.09498325e-05,2.135683e-05,4.46234784e-05,0.000120607001
2.95,9.55901264e-07,4.79320227e-06,1.06547793e-05,2.05274107e-05,4.18778165e-05,0.000108595435
3.0,9.47298699e-07,4.70630524e-06,1.03766497e-05,1.97623052e-05,3.94446076e-05,9.81228683e-05
3.05,9.38998894e-07,4.62319398e-06,1.01140335e-05,1.9054387e-05,3.72754981e-05,8.90749427e-05
3.1,9.30986349e-07,4.54362702e-06,9.86567212e-06,1.83975343e-05,3.53311799e-05,8.1284091e-05
3.15,9.23246599e-07,4.46738297e-06,9.63043947e-06,1.77864613e-05,3.35794814e-05,7.45713615e-05
3.2,9.15766132e-07,4.39425848e-06,9.40732458e-06,1.72165807e-05,3.19938896e-05,6.87690937e-05
3.25,9.08532314e-07,4.32406647e-06,9.19541748e-06,1.66838939e-05,3.05524048e-05,6.37303182e-05
3.3,9.01533311e-07,4.25663449e-06,8.99389683e-06,1.61848998e-05,2.92366499e-05,5.93307272e-05
3.35,8.94758037e-07,4.19180336e-06,8.80201949e-06,1.57165204e-05,2.80311754e-05,5.54671447e-05
3.4,8.88196087e-07,4.1294259e-06,8.6191114e-06,1.52760391e-05,2.69229126e-05,5.20547015e-05
3.45,8.81837692e-07,4.0693658e-06,8.44455977e-06,1.48610498e-05,2.59007423e-05,4.90237984e-05
3.5,8.75673667e-07,4.01149668e-06,8.27780627e-06,1.44694138e-05,2.49551511e-05,4.63173248e-05
3.55,8.69695369e-07,3.95570116e-06,8.11834114e-06,1.40992238e-05,2.40779568e-05,4.38882843e-05
3.6,8.63894661e-07,3.90187012e-06,7.96569803e-06,1.37487738e-05,2.32620871e-05,4.1697843e-05
3.65,8.5826387e-07,3.84990192e-06,7.81944948e-06,1.34165333e-05,2.25014003e-05,3.97137526e-05
3.7,8.52795758e-07,3.79970184e-06,7.67920295e-06,1.31011253e-05,2.17905387e-05,3.79090911e-05
3.75,8.47483491e-07,3.75118146e-06,7.54459732e-06,1.28013076e-05,2.11248096e-05,3.62612597e-05
3.8,8.42320612e-07,3.70425815e-06,7.41529985e-06,1.25159569e-05,2.05000857e-05,3.47511836e-05
3.85,8.37301012e-07,3.65885462e-06,7.29100342e-06,1.22440549e-05,1.99127235e-05,3.33626758e-05
3.9,8.32418913e-07,3.61489848e-06,7.17142413e-06,1.19846764e-05,1.93594952e-05,3.20819272e-05
3.95,8.27668839e-07,3.57232186e-06,7.05629914e-06,1.17369788e-05,1.88375315e-05,3.08970976e-05
4.0,8.23045602e-07,3.53106107e-06,6.94538475e-06,1.15001932e-05,1.83442736e-05,2.97979855e-05
4.05,8.18544279e-07,3.49105628e-06,6.83845471e-06,1.12736165e-05,1.78774324e-05,2.877576e-05
4.1,8.14160201e-07,3.45225123e-06,6.73529869e-06,1.10566047e-05,1.74349546e-05,2.78227432e-05
4.15,8.09888929e-07,3.41459298e-06,6.63572087e-06,1.08485666e-05,1.70149928e-05,2.69322307e-05
4.2,8.05726249e-07,3.37803164e-06,6.53953877e-06,1.06489587e-05,1.66158808e-05,2.60983451e-05
4.25,8.01668149e-07,3.34252019e-06,6.44658207e-06,1.04572804e-05,1.6236112e-05,2.5315914e-05
4.3,7.97710815e-07,3.30801425e-06,6.35669166e-06,1.02730697e-05,1.58743207e-05,2.45803687e-05
4.35,7.93850613e-07,3.27447192e-06,6.26971874e-06,1.00959e-05,1.55292662e-05,2.38876599e-05
4.4,7.90084082e-07,3.24185356e-06,6.18552396e-06,9.92537636e-06,1.5199819e-05,2.32341868e-05
4.45,7.86407923e-07,3.21012172e-06,6.10397672e-06,9.76113286e-06,1.48849484e-05,2.26167373e-05
4.5,7.82818989e-07,3.17924093e-06,6.02495447e-06,9.60282987e-06,1.45837121e-05,2.20324374e-05
4.55,7.79314276e-07,3.14917757e-06,5.94834211e-06,9.45015181e-06,1.42952473e-05,2.14787083e-05
4.6,7.75890918e-07,3.1198998e-06,5.87403145e-06,9.30280502e-06,1.40187618e-05,2.09532299e-05
4.65,7.72546174e-07,3.09137739e-06,5.80192067e-06,9.16051591e-06,1.37535276e-05,2.04539094e-05
4.7,7.69277426e-07,3.06358165e-06,5.73191387e-06,9.0230293e-06,1.34988744e-05,1.9978854e-05
4.75,7.66082171e-07,3.03648533e-06,5.66392066e-06,8.89010687e-06,1.32541837e-05,1.95263483e-05
4.8,7.62958012e-07,3.01006252e-06,5.59785577e-06,8.7615258e-06,1.30188845e-05,1.90948338e-05
4.85,7.59902657e-07,2.98428858e-06,5.53363866e-06,8.63707755e-06,1.27924481e-05,1.86828914e-05
4.9,7.56913909e-07,2.95914005e-06,5.47119323e-06,8.51656672e-06,1.25743849e-05,1.82892265e-05
4.95,7.53989665e-07,2.93459461e-06,5.41044753e-06,8.39981005e-06,1.23642406e-05,1.79126556e-05
5.0,7.51127907e-07,2.91063096e-06,5.35133343e-06,8.28663549e-06,1.21615932e-05,1.75520947e-05
5.05,7.48326702e-07,2.88722881e-06,5.29378642e-06,8.17688133e-06,1.19660499e-05,1.72065492e-05
5.1,7.45584193e-07,2.8643688e-06,5.23774535e-06,8.0703955e-06,1.1777245e-05,1.68751047e-05
5.15,7.42898601e-07,2.84203247e-06,5.18315222e-06,7.96703479e-06,1.15948375e-05,1.65569193e-05
5.2,7.40268214e-07,2.82020215e-06,5.12995199e-06,7.86666429e-06,1.14185087e-05,1.62512168e-05
5.25,7.37691392e-07,2.79886099e-06,5.07809236e-06,7.76915672e-06,1.12479611e-05,1.59572798e-05
5.3,7.35166555e-07,2.77799288e-06,5.02752364e-06,7.67439197e-06,1.10829161e-05,1.5674445e-05
5.35,7.32692186e-07,2.75758238e-06,4.97819858e-06,7.58225657e-06,1.09231127e-05,1.54020977e-05
5.4,7.30266826e-07,2.73761475e-06,4.9300722e-06,7.49264324e-06,1.07683062e-05,1.51396677e-05
5.45,7.27889071e-07,2.71807586e-06,4.88310168e-06,7.40545048e-06,1.06182671e-05,1.48866254e-05
5.5,7.2555757e-07,2.69895219e-06,4.83724623e-06,7.3205822e-06,1.04727794e-05,1.46424779e-05
5.55,7.23271024e-07,2.68023076e-06,4.79246695e-06,7.23794732e-06,1.03316402e-05,1.44067664e-05
5.6,7.21028178e-07,2.66189914e-06,4.74872675e-06,7.15745952e-06,1.01946585e-05,1.41790631e-05
5.65,7.18827827e-07,2.64394541e-06,4.70599022e-06,7.07903685e-06,1.00616544e-05,1.39589683e-05
5.7,7.16668808e-07,2.62635814e-06,4.66422357e-06,7.00260153e-06,9.93245816e-06,1.37461089e-05
5.75,7.14549998e-07,2.60912633e-06,4.6233945e-06,6.92807965e-06,9.80690961e-06,1.35401355e-05
5.8,7.12470318e-07,2.59223943e-06,4.58347213e-06,6.85540095e-06,9.68485753e-06,1.33407208e-05
5.85,7.10428723e-07,2.57568732e-06,4.54442694e-06,6.78449858e-06,9.56615895e-06,1.31475582e-05
5.9,7.08424208e-07,2.55946025e-06,4.50623069e-06,6.71530891e-06,9.45067865e-06,1.29603598e-05
5.95,7.064558e-07,2.54354886e-06,4.46885632e-06,6.64777133e-06,9.3382886e-06,1.27788551e-05
6.0,7.04522561e-07,2.52794414e-06,4.43227794e-06,6.58182808e-06,9.22886754e-06,1.26027898e-05
6.05,7.02623586e-07,2.51263741e-06,4.39647073e-06,6.51742409e-06,9.12230051e-06,1.24319245e-05
6.1,7.00757999e-07,2.49762033e-06,4.3614109e-06,6.45450681e-06,9.01847843e-06,1.22660339e-05
6.15,6.98924952e-07,2.48288487e-06,4.32707564e-06,6.39302606e-06,8.91729777e-06,1.21049054e-05
6.2,6.9712363e-07,2.46842329e-06,4.29344303e-06,6.33293393e-06,8.81866018e-06,1.19483384e-05
6.25,6.95353239e-07,2.45422812e-06,4.26049208e-06,6.27418462e-06,8.72247218e-06,1.17961435e-05
6.3,6.93613016e-07,2.44029218e-06,4.2282026e-06,6.21673437e-06,8.62864484e-06,1.16481418e-05
6.35,6.9190222e-07,2.42660852e-06,4.1965552e-06,6.16054127e-06,8.53709355e-06,1.15041639e-05
6.4,6.90220134e-07,2.41317046e-06,4.16553124e-06,6.10556525e-06,8.44773772e-06,1.13640497e-05
6.45,6.88566066e-07,2.39997155e-06,4.1351128e-06,6.05176791e-06,8.36050054e-06,1.12276474e-05
6.5,6.86939343e-07,2.38700555e-06,4.10528266e-06,5.99911248e-06,8.27530882e-06,1.10948132e-05
6.55,6.85339315e-07,2.37426645e-06,4.07602423e-06,5.94756372e-06,8.19209272e-06,1.09654106e-05
6.6,6.83765352e-07,2.36174844e-06,4.04732153e-06,5.89708782e-06,8.11078556e-06,1.08393101e-05
