vds,vb1,vb2,vb3,vb4,vb5,vb6
0.0,3.06043606e-05,9.37839451e-05,0.000146471167,0.0001884706,0.000220516935,0.000243614635
0.05,2.65024506e-05,8.95764964e-05,0.000142545025,0.000184900706,0.000217321826,0.00024078692
0.1,2.24182604e-05,8.53803628e-05,0.00013862907,0.000181339522,0.000214133918,0.00023796503
0.15,1.83596236e-05,8.11955424e-05,0.00013472327,0.00017778702,0.00021095319,0.00023514895
0.2,1.4345947e-05,7.7022045e-05,0.000130827593,0.000174243173,0.000207779622,0.000232338663
0.25,1.04298376e-05,7.2859897e-05,0.000126942008,0.000170707953,0.000204613192,0.000229534156
0.3,6.75964726e-06,6.87091482e-05,0.000123066484,0.000167181334,0.00020145388,0.000226735411
0.35,3.69553435e-06,6.45698827e-05,0.00011920099,0.000163663287,0.000198301665,0.000223942415
0.4,1.70549506e-06,6.04422342e-05,0.000115345497,0.000160153787,0.000195156526,0.000221155152
0.45,7.6000059e-07,5.63264121e-05,0.000111499976,0.000156652806,0.000192018443,0.000218373607
0.5,3.79828496e-07,5.22227418e-05,0.000107664401,0.000153160317,0.000188887395,0.000215597764
0.55,2.23753193e-07,4.81317318e-05,0.000103838744,0.000149676294,0.000185763361,0.000212827609
0.6,1.5282925e-07,4.40541884e-05,0.000100022982,0.000146200709,0.000182646321,0.000210063126
0.65,1.16864347e-07,3.9991415e-05,9.62170927e-05,0.000142733536,0.000179536255,0.000207304301
0.7,9.67994958e-08,3.59455716e-05,9.24210575e-05,0.000139274748,0.000176433142,0.000204551118
0.75,8.46896018e-08,3.19203438e-05,8.86348613e-05,0.000135824318,0.00017333696,0.000201803562
0.8,7.68972197e-08,2.79222196e-05,8.48584947e-05,0.00013238222,0.000170247691,0.000199061618
0.85,7.16130836e-08,2.39629853e-05,8.10919552e-05,0.000128948427,0.000167165313,0.000196325273
0.9,6.78712316e-08,2.00646188e-05,7.733525e-05,0.000125522913,0.000164089807,0.000193594509
0.95,6.51240296e-08,1.62685668e-05,7.35884e-05,0.00012210565,0.00016102115,0.000190869313
1.0,6.30447465e-08,1.26512801e-05,6.9851445e-05,0.000118696612,0.000157959324,0.00018814967
1.05,6.14297407e-08,9.34187935e-06,6.6124452e-05,0.000115295772,0.000154904307,0.000185435564
1.1,6.01472145e-08,6.51746715e-06,6.24075273e-05,0.000111903104,0.000151856079,0.000182726981
1.15,5.91090274e-08,4.33503452e-06,5.87008346e-05,0.000108518581,0.000148814618,0.000180023907
1.2,5.82545196e-08,2.82400567e-06,5.50046242e-05,0.000105142176,0.000145779906,0.000177326325
1.25,5.75408746e-08,1.86493178e-06,5.1319278e-05,0.000101773862,0.000142751919,0.000174634222
1.3,5.69371851e-08,1.28185924e-06,4.76453817e-05,9.84136147e-05,0.000139730638,0.000171947581
1.35,5.64206889e-08,9.28180081e-07,4.39838431e-05,9.50614062e-05,0.000136716042,0.00016926639
1.4,5.59743187e-08,7.08576241e-07,4.03360899e-05,9.17172114e-05,0.000133708108,0.000166590631
1.45,5.55850685e-08,5.67367481e-07,3.67044032e-05,8.83810053e-05,0.000130706816,0.000163920291
1.5,5.52428811e-08,4.730559e-07,3.30924922e-05,8.50527641e-05,0.000127712144,0.000161255355
1.55,5.49398747e-08,4.07717153e-07,2.95064896e-05,8.17324655e-05,0.00012472407,0.000158595807
1.6,5.46697977e-08,3.6090786e-07,2.59566745e-05,7.84200898e-05,0.000121742571,0.000155941632
1.65,5.44276353e-08,3.26354708e-07,2.24603893e-05,7.51156213e-05,0.000118767625,0.000153292816
1.7,5.42093243e-08,3.00166087e-07,1.90466872e-05,7.18190497e-05,0.000115799208,0.000150649342
1.75,5.4011541e-08,2.79851045e-07,1.57627606e-05,6.85303737e-05,0.000112837298,0.000148011196
1.8,5.3831543e-08,2.63767635e-07,1.26800729e-05,6.52496049e-05,0.000109881869,0.000145378362
1.85,5.36670494e-08,2.50803871e-07,9.89344149e-06,6.19767747e-05,0.000106932896,0.000142750825
1.9,5.35161492e-08,2.40187873e-07,7.50265635e-06,5.87119444e-05,0.000103990355,0.000140128569
1.95,5.33772296e-08,2.31371697e-07,5.5754079e-06,5.54552216e-05,0.000101054217,0.000137511577
2.0,5.32489214e-08,2.23958384e-07,4.11470475e-06,5.2206785e-05,9.81244568e-05,0.000134899835
2.05,5.31300545e-08,2.17654994e-07,3.06030618e-06,4.89669239e-05,9.52010438e-05,0.000132293325
2.1,5.30196239e-08,2.12241698e-07,2.32083555e-06,4.5736102e-05,9.22839483e-05,0.000129692031
2.15,5.29167615e-08,2.07550989e-07,1.80696525e-06,4.25150596e-05,8.93731385e-05,0.000127095937
2.2,5.28207138e-08,2.03453438e-07,1.4478253e-06,3.93049803e-05,8.6468581e-05,0.000124505025
2.25,5.27308239e-08,1.99847754e-07,1.19305387e-06,3.61077661e-05,8.35702403e-05,0.000121919277
2.3,5.26465164e-08,1.96653736e-07,1.00874847e-06,3.29264881e-05,8.06780789e-05,0.000119338676
2.35,5.25672852e-08,1.93807193e-07,8.72559906e-07,2.97661272e-05,7.77920572e-05,0.000116763204
2.4,5.24926837e-08,1.91256236e-07,7.69780199e-07,2.66347694e-05,7.49121329e-05,0.000114192841
2.45,5.2422316e-08,1.88958536e-07,6.90642161e-07,2.35454653e-05,7.20382617e-05,0.000111627567
2.5,5.23558302e-08,1.8687927e-07,6.28563932e-07,2.05189197e-05,6.91703971e-05,0.000109067363
2.55,5.22929122e-08,1.84989558e-07,5.79032953e-07,1.75868453e-05,6.63084913e-05,0.000106512206
2.6,5.22332812e-08,1.83265282e-07,5.38898795e-07,1.4794881e-05,6.34524964e-05,0.000103962076
2.65,5.21766848e-08,1.81686154e-07,5.05922017e-07,1.22023536e-05,6.06023667e-05,0.000101416948
2.7,5.21228963e-08,1.80235004e-07,4.78482836e-07,9.87502969e-06,5.77580626e-05,9.88767983e-05
2.75,5.20717106e-08,1.78897215e-07,4.55390208e-07,7.86939354e-06,5.49195579e-05,9.63416007e-05
2.8,5.20229426e-08,1.7766027e-07,4.35754709e-07,6.21429598e-06,5.20868503e-05,9.38113273e-05
2.85,5.19764239e-08,1.76513396e-07,4.18902509e-07,4.90149643e-06,4.92599801e-05,9.12859488e-05
2.9,5.19320019e-08,1.75447275e-07,4.04316229e-07,3.89143414e-06,4.64390598e-05,8.8765433e-05
2.95,5.18895373e-08,1.74453813e-07,3.91593648e-07,3.1287365e-06,4.36243229e-05,8.62497457e-05
3.0,5.1848903e-08,1.73525943e-07,3.80418445e-07,2.55713837e-06,4.08162026e-05,8.37388495e-05
3.05,5.18099825e-08,1.72657474e-07,3.7053918e-07,2.12814533e-06,3.80154599e-05,8.12327035e-05
3.1,5.17726694e-08,1.71842959e-07,3.61753995e-07,1.80372069e-06,3.52233906e-05,7.87312631e-05
3.15,5.17368656e-08,1.71077588e-07,3.53899334e-07,1.55557573e-06,3.24421581e-05,7.62344789e-05
3.2,5.17024811e-08,1.703571e-07,3.46841532e-07,1.36324101e-06,2.96753205e-05,7.37422966e-05
3.25,5.16694327e-08,1.69677705e-07,3.40470481e-07,1.2120696e-06,2.69286465e-05,7.1254656e-05
3.3,5.1637644e-08,1.69036026e-07,3.34694795e-07,1.09159157e-06,2.42113235e-05,6.87714899e-05
3.35,5.16070439e-08,1.68429038e-07,3.294381e-07,9.94284139e-07,2.15376175e-05,6.6292724e-05
3.4,5.15775668e-08,1.67854033e-07,3.24636149e-07,9.1469442e-07,1.89288579e-05,6.38182755e-05
3.45,5.1549152e-08,1.67308571e-07,3.20234567e-07,8.48827163e-07,1.64151879e-05,6.13480526e-05
3.5,5.15217427e-08,1.66790452e-07,3.16187066e-07,7.93720646e-07,1.40358419e-05,5.88819542e-05
3.55,5.14952865e-08,1.6629769e-07,3.12454036e-07,7.47152802e-07,1.18362014e-05,5.641987e-05
3.6,5.14697344e-08,1.65828481e-07,3.09001404e-07,7.07436538e-07,9.86053568e-06,5.39616816e-05
3.65,5.14450408e-08,1.65381192e-07,3.05799722e-07,6.73276042e-07,8.14186352e-06,5.15072656e-05
3.7,5.1421163e-08,1.64954331e-07,3.02823425e-07,6.43664924e-07,6.69338016e-06,4.90564996e-05
3.75,5.13980613e-08,1.6454654e-07,3.00050221e-07,6.17813286e-07,5.50605189e-06,4.6609273e-05
3.8,5.13756983e-08,1.64156579e-07,2.97460598e-07,5.9509493e-07,4.55321665e-06,4.41655065e-05
3.85,5.13540392e-08,1.63783311e-07,2.95037408e-07,5.75008731e-07,3.79886975e-06,4.17251849e-05
3.9,5.13330512e-08,1.63425693e-07,2.9276553e-07,5.57150092e-07,3.20543264e-06,3.92884112e-05
3.95,5.13127036e-08,1.63082767e-07,2.90631581e-07,5.41189614e-07,2.73875576e-06,3.68554957e-05
4.0,5.12929676e-08,1.62753651e-07,2.8862368e-07,5.26857018e-07,2.37028345e-06,3.44270994e-05
4.05,5.1273816e-08,1.62437532e-07,2.86731243e-07,5.13928893e-07,2.07731632e-06,3.20044621e-05
4.1,5.12552232e-08,1.6213366e-07,2.8494482e-07,5.02219294e-07,1.84233717e-06,2.95897566e-05
4.15,5.12371651e-08,1.61841339e-07,2.83255942e-07,4.91572445e-07,1.65203933e-06,2.71866243e-05
4.2,5.12196191e-08,1.61559928e-07,2.81657006e-07,4.81857048e-07,1.4963809e-06,2.4800951e-05
4.25,5.12025636e-08,1.61288828e-07,2.80141161e-07,4.72961797e-07,1.36778774e-06,2.2441914e-05
4.3,5.11859785e-08,1.61027488e-07,2.78702227e-07,4.64791819e-07,1.26052776e-06,2.01232448e-05
4.35,5.11698445e-08,1.6077539e-07,2.7733461e-07,4.57265834e-07,1.17023755e-06,1.78644499e-05
4.4,5.11541436e-08,1.60532056e-07,2.76033236e-07,4.50313869e-07,1.09357123e-06,1.569142e-05
4.45,5.11388586e-08,1.60297039e-07,2.74793497e-07,4.4387541e-07,1.02794217e-06,1.36355647e-05
4.5,5.11239732e-08,1.60069921e-07,2.73611192e-07,4.37897895e-07,9.71333592e-07,1.17306822e-05
4.55,5.1109472e-08,1.59850312e-07,2.72482491e-07,4.32335482e-07,9.22159429e-07,1.00076063e-05
4.6,5.10953404e-08,1.59637847e-07,2.71403892e-07,4.27148034e-07,8.79161621e-07,8.48810853e-06
4.65,5.10815644e-08,1.59432185e-07,2.70372185e-07,4.22300278e-07,8.41333956e-07,7.18052947e-06
4.7,5.10681309e-08,1.59233006e-07,2.69384427e-07,4.17761109e-07,8.07865155e-07,6.07901952e-06
4.75,5.10550272e-08,1.59040009e-07,2.68437912e-07,4.13503003e-07,7.7809604e-07,5.1663511e-06
4.8,5.10422415e-08,1.58852911e-07,2.67530149e-07,4.09501529e-07,7.51487062e-07,4.4185971e-06
4.85,5.10297624e-08,1.58671448e-07,2.66658842e-07,4.05734933e-07,7.27593474e-07,3.8096949e-06
4.9,5.1017579e-08,1.58495369e-07,2.6582187e-07,4.02183793e-07,7.06046228e-07,3.31472692e-06
4.95,5.10056809e-08,1.58324439e-07,2.6501727e-07,3.98830716e-07,6.86537144e-07,2.91170482e-06
5.0,5.09940583e-08,1.58158437e-07,2.64243227e-07,3.95660089e-07,6.68807323e-07,2.58219073e-06
5.05,5.09827019e-08,1.57997154e-07,2.63498056e-07,3.92657858e-07,6.52638028e-07,2.31121457e-06
5.1,5.09716026e-08,1.57840391e-07,2.62780191e-07,3.89811346e-07,6.37843454e-07,2.086857e-06
5.15,5.09607518e-08,1.57687962e-07,2.6208818e-07,3.87109086e-07,6.24264959e-07,1.89972988e-06
5.2,5.09501413e-08,1.5753969e-07,2.61420666e-07,3.84540688e-07,6.1176644e-07,1.74247417e-06
5.25,5.09397634e-08,1.57395408e-07,2.60776389e-07,3.82096713e-07,6.0023059e-07,1.60932538e-06
5.3,5.09296104e-08,1.57254959e-07,2.60154171e-07,3.79768572e-07,5.8955586e-07,1.49575864e-06
5.35,5.09196752e-08,1.57118191e-07,2.5955291e-07,3.77548433e-07,5.79653976e-07,1.39820801e-06
5.4,5.09099509e-08,1.56984962e-07,2.58971578e-07,3.7542914e-07,5.70447904e-07,1.3138488e-06
5.45,5.09004309e-08,1.56855138e-07,2.58409213e-07,3.73404142e-07,5.61870163e-07,1.24043026e-06
5.5,5.08911089e-08,1.56728589e-07,2.5786491e-07,3.71467435e-07,5.53861429e-07,1.17614762e-06
5.55,5.08819789e-08,1.56605195e-07,2.57337823e-07,3.69613503e-07,5.46369374e-07,1.11954425e-06
5.6,5.08730349e-08,1.56484838e-07,2.56827157e-07,3.67837272e-07,5.39347689e-07,1.06943685e-06
5.65,5.08642715e-08,1.56367409e-07,2.56332165e-07,3.66134068e-07,5.32755262e-07,1.02485785e-06
5.7,5.08556832e-08,1.56252803e-07,2.55852143e-07,3.64499577e-07,5.26555495e-07,9.85011104e-07
5.75,5.08472649e-08,1.56140918e-07,2.5538643e-07,3.62929813e-07,5.20715705e-07,9.49237444e-07
5.8,5.08390116e-08,1.56031661e-07,2.54934401e-07,3.61421086e-07,5.15206635e-07,9.16987866e-07
5.85,5.08309187e-08,1.55924939e-07,2.54495468e-07,3.59969979e-07,5.10002025e-07,8.87802499e-07
5.9,5.08229814e-08,1.55820666e-07,2.54069077e-07,3.5857332e-07,5.05078243e-07,8.61294012e-07
5.95,5.08151954e-08,1.55718759e-07,2.53654701e-07,3.57228161e-07,5.00413976e-07,8.37134457e-07
6.0,5.08075565e-08,1.55619138e-07,2.53251846e-07,3.55931761e-07,4.95989955e-07,8.15044767e-07
6.05,5.08000606e-08,1.55521729e-07,2.52860043e-07,3.54681568e-07,4.91788724e-07,7.94786331e-07
6.1,5.07927036e-08,1.55426457e-07,2.52478846e-07,3.53475201e-07,4.87794434e-07,7.76154192e-07
6.15,5.0785482e-08,1.55333254e-07,2.52107834e-07,3.52310438e-07,4.83992665e-07,7.58971532e-07
6.2,5.07783919e-08,1.55242054e-07,2.5174661e-07,3.51185202e-07,4.80370276e-07,7.43085172e-07
6.25,5.07714298e-08,1.55152793e-07,2.51394794e-07,3.5009755e-07,4.76915265e-07,7.28361884e-07
6.3,5.07645924e-08,1.5506541e-07,2.51052027e-07,3.49045665e-07,4.73616652e-07,7.14685351e-07
6.35,5.07578764e-08,1.54979846e-07,2.50717967e-07,3.48027841e-07,4.70464375e-07,7.01953655e-07
6.4,5.07512786e-08,1.54896046e-07,2.5039229e-07,3.47042478e-07,4.67449196e-07,6.90077184e-07
6.45,5.0744796e-08,1.54813956e-07,2.50074686e-07,3.46088074e-07,4.64562623e-07,6.78976882e-07
6.5,5.07384255e-08,1.54733524e-07,2.49764863e-07,3.45163216e-07,4.61796834e-07,6.68582793e-07
6.55,5.07321644e-08,1.54654702e-07,2.49462539e-07,3.44266577e-07,4.59144617e-07,6.58832817e-07
6.6,5.07260099e-08,1.5457744e-07,2.49167449e-07,3.43396904e-07,4.56599309e-07,6.49671675e-07
