vds,vb1,vb2,vb3,vb4,vb5,vb6
0.0,0.000618938757,0.00188600081,0.00280635907,0.00347302853,0.00392347876,0.00420688564
0.05,0.000505101945,0.00175394731,0.00267040577,0.00334082915,0.00379993633,0.00409429866
0.1,0.000395417382,0.00162579569,0.00253815964,0.00321186293,0.00367907213,0.00398386788
0.15,0.000291016032,0.00150141811,0.0024095035,0.00308603863,0.00356081962,0.00387554621
0.2,0.000195752513,0.00138069441,0.00228432377,0.0029632674,0.00344511379,0.00376928752
0.25,0.000120255198,0.00126351418,0.0021625103,0.00284346256,0.00333189099,0.00366504655
0.3,7.65594396e-05,0.00114978028,0.00204395638,0.00272653941,0.00322108887,0.00356277885
0.35,5.73922173e-05,0.00103941506,0.00192855895,0.00261241529,0.00311264627,0.00346244071
0.4,4.83906646e-05,0.000932371885,0.00181621892,0.00250100961,0.00300650321,0.00336398915
0.45,4.30940532e-05,0.000828657517,0.00170684157,0.00239224397,0.00290260096,0.00326738191
0.5,3.94363535e-05,0.000728378331,0.00160033687,0.00228604234,0.00280088206,0.00317257744
0.55,3.66802363e-05,0.000631838738,0.00149661976,0.00218233119,0.00270129045,0.00307953497
0.6,3.44990197e-05,0.000539747802,0.00139561044,0.00208103961,0.00260377151,0.00298821452
0.65,3.27187296e-05,0.000453598064,0.0012972345,0.00198209933,0.00250827219,0.00289857696
0.7,3.12340734e-05,0.00037606564,0.00120142314,0.00188544468,0.00241474104,0.00281058407
0.75,2.99757011e-05,0.000310526821,0.00110811336,0.00179101246,0.0023231283,0.00272419857
0.8,2.88952546e-05,0.000258864513,0.00101724833,0.00169874156,0.00223338587,0.00263938419
0.85,2.79576264e-05,0.000219895765,0.000928778567,0.00160857245,0.00214546729,0.00255610566
0.9,2.71365507e-05,0.000190697078,0.00084266639,0.00152044629,0.00205932768,0.00247432878
0.95,2.64119098e-05,0.000168463819,0.000758903584,0.00143430358,0.00197492359,0.00239402039
1.0,2.57679985e-05,0.000151136288,0.000677574974,0.00135008187,0.00189221275,0.00231514836
1.05,2.51923587e-05,0.000137317814,0.000599046716,0.0012677121,0.00181115382,0.00223768159
1.1,2.4674973e-05,0.000126069379,0.00052434797,0.00118711251,0.00173170585,0.00216158992
1.15,2.42076898e-05,0.000116749265,0.00045546313,0.00110817847,0.00165382767,0.00208684408
1.2,2.3783806e-05,0.000108908535,0.000394751905,0.00103076663,0.00157747687,0.00201341557
1.25,2.33977577e-05,0.000102225458,0.000343585266,0.000954672637,0.00150260826,0.00194127651
1.3,2.30448875e-05,9.64641978e-05,0.000301714985,0.000879611031,0.00142917163,0.00187039943
1.35,2.2721267e-05,9.1448301e-05,0.000267834913,0.000805234057,0.00135710804,0.00180075701
1.4,2.24235597e-05,8.70432933e-05,0.000240371099,0.000731285625,0.00128634412,0.00173232168
1.45,2.21489136e-05,8.31449946e-05,0.000217913371,0.000658013517,0.00121678289,0.00166506511
1.5,2.18948765e-05,7.96714988e-05,0.000199336026,0.000586717265,0.00114828953,0.00159895743
1.55,2.16593281e-05,7.65575552e-05,0.000183780781,0.000519764632,0.0010806704,0.0015339661
1.6,2.14404264e-05,7.37505607e-05,0.00017060258,0.000459597587,0.00101364591,0.00147005426
1.65,2.12365634e-05,7.12076494e-05,0.000159316352,0.000407563951,0.000946827627,0.00140717819
1.7,2.10463288e-05,6.88935483e-05,0.00014955455,0.000363654498,0.000879735566,0.00134528344
1.75,2.08684815e-05,6.67789726e-05,0.00014103569,0.00032699656,0.000811935955,0.00128429894
1.8,2.07019242e-05,6.48394113e-05,0.000133541641,0.000296421029,0.000743391173,0.00122412795
1.85,2.0545684e-05,6.30541949e-05,0.000126901334,0.000270796234,0.000674944122,0.0011646346
1.9,2.03988946e-05,6.14057736e-05,0.000120979056,0.000249156239,0.000608492242,0.00110562498
1.95,2.02607828e-05,5.98791513e-05,0.000115665956,0.000230721247,0.000546410352,0.0010468239
2.0,2.01306562e-05,5.84614389e-05,0.000110873826,0.000214876437,0.000490565304,0.000987855608
2.05,2.00078928e-05,5.71414976e-05,0.000106530505,0.000201140675,0.000441754537,0.000928253938
2.1,1.98919324e-05,5.59096519e-05,0.000102576434,0.000189137107,0.000399818115,0.000867555078
2.15,1.97822693e-05,5.47574579e-05,9.89620463e-05,0.000178568999,0.000364051145,0.000805536361
2.2,1.96784459e-05,5.36775135e-05,9.56457815e-05,0.000169200962,0.000333563292,0.000742580446
2.25,1.95800467e-05,5.26633031e-05,9.25925416e-05,0.000160844688,0.000307484351,0.000679928316
2.3,1.94866943e-05,5.17090689e-05,8.97724929e-05,0.000153348217,0.000285050093,0.000619478791
2.35,1.93980445e-05,5.0809704e-05,8.71601209e-05,0.00014658786,0.000265622613,0.000563138494
2.4,1.93137833e-05,4.99606632e-05,8.47334807e-05,0.000140462089,0.000248682063,0.000512198644
2.45,1.92336233e-05,4.91578879e-05,8.24735975e-05,0.000134886907,0.000233808959,0.000467135001
2.5,1.91573011e-05,4.83977432e-05,8.03639828e-05,0.000129792285,0.000220665501,0.000427778905
2.55,1.90845749e-05,4.76769635e-05,7.83902423e-05,0.00012511943,0.000208979043,0.000393601272
2.6,1.90152225e-05,4.69926073e-05,7.65397549e-05,0.00012081865,0.000198528491,0.000363940679
2.65,1.89490388e-05,4.63420179e-05,7.48014089e-05,0.000116847677,0.000189133484,0.000338137398
2.7,1.88858348e-05,4.57227898e-05,7.31653838e-05,0.000113170353,0.000180645919,0.000315595258
2.75,1.88254361e-05,4.51327399e-05,7.16229689e-05,0.000109755569,0.000172943354,0.000295801474
2.8,1.87676808e-05,4.45698821e-05,7.0166411e-05,0.000106576428,0.000165923878,0.000278325955
2.85,1.87124193e-05,4.40324061e-05,6.87887868e-05,0.000103609555,0.000159502103,0.000262812299
2.9,1.86595126e-05,4.35186578e-05,6.74838955e-05,0.000100834549,0.000153606036,0.000248966495
2.95,1.86088316e-05,4.30271234e-05,6.62461669e-05,9.82335244e-05,0.000148174602,0.000236546037
3.0,1.85602561e-05,4.25564147e-05,6.50705832e-05,9.57907373e-05,0.000143155696,0.000225350409
3.05,1.85136743e-05,4.21052559e-05,6.39526129e-05,9.34922783e-05,0.000138504617,0.000215213151
3.1,1.84689818e-05,4.16724734e-05,6.28881532e-05,9.13258125e-05,0.000134182818,0.000205995408
3.15,1.84260813e-05,4.12569849e-05,6.18734804e-05,8.92803649e-05,0.000130156897,0.000197580747
3.2,1.83848816e-05,4.08577913e-05,6.09052074e-05,8.73461384e-05,0.000126397779,0.000189871006
3.25,1.83452977e-05,4.04739684e-05,5.99802466e-05,8.5514361e-05,0.00012288004,0.000182782977
3.3,1.83072498e-05,4.01046605e-05,5.90957776e-05,8.37771552e-05,0.00011958136,0.000176245752
3.35,1.82706631e-05,3.97490739e-05,5.8249219e-05,8.2127428e-05,0.000116482066,0.000170198597
3.4,1.82354675e-05,3.94064713e-05,5.74382033e-05,8.05587752e-05,0.000113564757,0.00016458923
3.45,1.8201597e-05,3.90761674e-05,5.66605558e-05,7.90654006e-05,0.000110813984,0.000159372429
3.5,1.81689898e-05,3.87575236e-05,5.59142751e-05,7.76420457e-05,0.000108215988,0.000154508906
3.55,1.81375875e-05,3.8449945e-05,5.51975163e-05,7.62839288e-05,0.000105758476,0.000149964377
3.6,1.81073353e-05,3.8152876e-05,5.45085758e-05,7.49866922e-05,0.000103430431,0.0001457088
3.65,1.80781813e-05,3.78657975e-05,5.38458784e-05,7.37463569e-05,0.000101221953,0.000141715753
3.7,1.80500769e-05,3.75882238e-05,5.32079653e-05,7.25592818e-05,9.91241208e-05,0.000137961905
3.75,1.8022976e-05,3.73197002e-05,5.25934835e-05,7.14221294e-05,9.7128876e-05,0.000134426585
3.8,1.7996835e-05,3.70598002e-05,5.20011766e-05,7.03318341e-05,9.52289192e-05,0.000131091418
3.85,1.79716129e-05,3.68081238e-05,5.14298761e-05,6.92855758e-05,9.3417625e-05,0.000127940014
3.9,1.79472706e-05,3.65642949e-05,5.0878494e-05,6.82807555e-05,9.16889656e-05,0.000124957714
3.95,1.79237714e-05,3.63279602e-05,5.03460161e-05,6.73149743e-05,9.00374453e-05,0.000122131366
4.0,1.79010803e-05,3.6098787e-05,4.98314957e-05,6.63860144e-05,8.84580433e-05,0.000119449137
4.05,1.78791643e-05,3.58764621e-05,4.93340482e-05,6.54918227e-05,8.69461636e-05,0.000116900356
4.1,1.7857992e-05,3.566069e-05,4.88528459e-05,6.46304954e-05,8.54975913e-05,0.000114475374
4.15,1.78375335e-05,3.54511921e-05,4.83871139e-05,6.38002649e-05,8.41084538e-05,0.000112165443
4.2,1.78177605e-05,3.5247705e-05,4.79361255e-05,6.2999488e-05,8.27751874e-05,0.000109962619
4.25,1.77986463e-05,3.50499801e-05,4.7499199e-05,6.22266351e-05,8.14945065e-05,0.000107859666
4.3,1.77801651e-05,3.4857782e-05,4.70756938e-05,6.14802805e-05,8.02633777e-05,0.000105849985
4.35,1.77622926e-05,3.46708881e-05,4.66650079e-05,6.07590938e-05,7.90789956e-05,0.000103927541
4.4,1.77450057e-05,3.44890875e-05,4.62665745e-05,6.00618322e-05,7.79387625e-05,0.000102086809
4.45,1.77282824e-05,3.43121802e-05,4.58798598e-05,5.93873333e-05,7.6840269e-05,0.000100322718
4.5,1.77121014e-05,3.41399765e-05,4.55043606e-05,5.87345086e-05,7.57812777e-05,9.86306043e-05
4.55,1.76964429e-05,3.39722964e-05,4.5139602e-05,5.81023383e-05,7.47597078e-05,9.70061768e-05
4.6,1.76812876e-05,3.38089689e-05,4.47851358e-05,5.74898653e-05,7.37736222e-05,9.54454762e-05
4.65,1.76666174e-05,3.36498315e-05,4.44405381e-05,5.68961909e-05,7.28212149e-05,9.39448453e-05
4.7,1.76524147e-05,3.34947296e-05,4.41054083e-05,5.63204702e-05,7.19008005e-05,9.25009007e-05
4.75,1.76386628e-05,3.33435162e-05,4.3779367e-05,5.57619086e-05,7.1010804e-05,9.1110508e-05
4.8,1.76253459e-05,3.31960512e-05,4.34620549e-05,5.52197573e-05,7.01497522e-05,8.97707588e-05
4.85,1.76124487e-05,3.30522012e-05,4.31531315e-05,5.46933109e-05,6.93162657e-05,8.84789513e-05
4.9,1.75999567e-05,3.2911839e-05,4.28522737e-05,5.4181904e-05,6.85090511e-05,8.72325723e-05
4.95,1.75878558e-05,3.27748433e-05,4.2559175e-05,5.36849082e-05,6.77268952e-05,8.6029281e-05
5.0,1.75761327e-05,3.26410983e-05,4.22735442e-05,5.32017298e-05,6.69686583e-05,8.48668943e-05
5.05,1.75647747e-05,3.25104935e-05,4.19951044e-05,5.27318076e-05,6.6233269e-05,8.37433745e-05
5.1,1.75537693e-05,3.23829233e-05,4.17235925e-05,5.22746103e-05,6.55197192e-05,8.26568168e-05
5.15,1.75431049e-05,3.22582866e-05,4.14587581e-05,5.18296349e-05,6.48270594e-05,8.16054388e-05
5.2,1.75327702e-05,3.21364871e-05,4.12003626e-05,5.13964048e-05,6.41543945e-05,8.05875713e-05
5.25,1.75227544e-05,3.20174323e-05,4.09481788e-05,5.09744678e-05,6.35008804e-05,7.96016491e-05
5.3,1.7513047e-05,3.19010338e-05,4.07019902e-05,5.0563395e-05,6.28657198e-05,7.86462033e-05
5.35,1.75036381e-05,3.1787207e-05,4.04615902e-05,5.0162779e-05,6.22481596e-05,7.77198538e-05
5.4,1.7494518e-05,3.16758707e-05,4.02267815e-05,4.97722327e-05,6.16474873e-05,7.68213031e-05
5.45,1.74856777e-05,3.15669472e-05,3.99973761e-05,4.93913881e-05,6.1063029e-05,7.59493299e-05
5.5,1.74771081e-05,3.14603619e-05,3.97731939e-05,4.9019895e-05,6.04941464e-05,7.51027839e-05
5.55,1.74688008e-05,3.13560433e-05,3.95540631e-05,4.865742e-05,5.99402344e-05,7.42805805e-05
5.6,1.74607475e-05,3.12539227e-05,3.93398194e-05,4.83036457e-05,5.94007194e-05,7.34816966e-05
5.65,1.74529405e-05,3.11539341e-05,3.91303053e-05,4.79582693e-05,5.88750569e-05,7.27051659e-05
5.7,1.7445372e-05,3.10560143e-05,3.89253704e-05,4.76210023e-05,5.836273e-05,7.19500751e-05
5.75,1.74380348e-05,3.09601024e-05,3.87248704e-05,4.72915692e-05,5.78632472e-05,7.12155608e-05
5.8,1.74309218e-05,3.08661398e-05,3.85286671e-05,4.69697072e-05,5.73761415e-05,7.05008057e-05
5.85,1.74240263e-05,3.07740703e-05,3.83366281e-05,4.66551651e-05,5.69009684e-05,6.98050355e-05
5.9,1.74173416e-05,3.06838398e-05,3.81486262e-05,4.63477028e-05,5.64373049e-05,6.91275166e-05
5.95,1.74108616e-05,3.05953961e-05,3.79645396e-05,4.60470908e-05,5.59847478e-05,6.84675532e-05
6.0,1.740458e-05,3.05086891e-05,3.77842513e-05,4.57531096e-05,5.5542913e-05,6.78244847e-05
6.05,1.7398491e-05,3.04236704e-05,3.76076489e-05,4.5465549e-05,5.51114341e-05,6.71976841e-05
6.1,1.73925889e-05,3.03402935e-05,3.74346245e-05,4.51842077e-05,5.46899616e-05,6.65865552e-05
6.15,1.73868683e-05,3.02585135e-05,3.72650742e-05,4.49088928e-05,5.42781617e-05,6.59905313e-05
6.2,1.73813239e-05,3.01782872e-05,3.70988983e-05,4.46394195e-05,5.38757156e-05,6.54090731e-05
6.25,1.73759505e-05,3.00995728e-05,3.69360009e-05,4.43756105e-05,5.34823185e-05,6.48416671e-05
6.3,1.73707433e-05,3.00223301e-05,3.67762895e-05,4.41172957e-05,5.3097679e-05,6.42878243e-05
6.35,1.73656975e-05,2.99465201e-05,3.66196754e-05,4.38643118e-05,5.27215183e-05,6.37470784e-05
6.4,1.73608084e-05,2.98721054e-05,3.64660727e-05,4.36165021e-05,5.23535696e-05,6.32189847e-05
6.45,1.73560716e-05,2.97990498e-05,3.63153992e-05,4.33737158e-05,5.19935772e-05,6.27031189e-05
6.5,1.73514828e-05,2.97273183e-05,3.61675752e-05,4.31358083e-05,5.16412963e-05,6.21990759e-05
6.55,1.73470378e-05,2.9656877e-05,3.60225242e-05,4.29026402e-05,5.12964921e-05,6.17064686e-05
6.6,1.73427326e-05,2.95876932e-05,3.58801723e-05,4.26740777e-05,5.09589393e-05,6.1224927e-05
