vds,vb1,vb2,vb3,vb4,vb5,vb6
0.0,1.53854827e-05,4.69000654e-05,7.32030404e-05,9.43118931e-05,0.000110228177,0.000121883172
0.05,1.33355861e-05,4.47985667e-05,7.1241663e-05,9.25274278e-05,0.000108631125,0.00012046897
0.1,1.12945004e-05,4.27027507e-05,6.9285401e-05,9.0747339e-05,0.00010703769,0.000119057696
0.15,9.26602063e-06,4.0612616e-05,6.73342381e-05,8.89716131e-05,0.000105447861,0.000117649342
0.2,7.25949746e-06,3.8528167e-05,6.53881581e-05,8.72002361e-05,0.000103861628,0.000116243901
0.25,5.30014218e-06,3.64494164e-05,6.34471452e-05,8.54331943e-05,0.000102278981,0.000114841364
0.3,3.45889927e-06,3.43763883e-05,6.15111835e-05,8.3670474e-05,0.000100699908,0.000113441725
0.35,1.90977827e-06,3.23091238e-05,5.95802578e-05,8.19120614e-05,9.91243989e-05,0.000112044975
0.4,8.88558255e-07,3.02476885e-05,5.76543532e-05,8.01579429e-05,9.75524441e-05,0.000110651106
0.45,3.96098444e-07,2.81921853e-05,5.5733455e-05,7.84081049e-05,9.59840326e-05,0.000109260111
0.5,1.96905753e-07,2.6142774e-05,5.38175494e-05,7.66625337e-05,9.44191542e-05,0.000107871982
0.55,1.15224713e-07,2.40997049e-05,5.19066232e-05,7.49212157e-05,9.28577984e-05,0.000106486712
0.6,7.82391892e-08,2.20633744e-05,5.00006639e-05,7.31841375e-05,9.12999549e-05,0.000105104293
0.65,5.95542877e-08,2.00344234e-05,4.80996604e-05,7.14512853e-05,8.97456132e-05,0.000103724717
0.7,4.91642988e-08,1.80139132e-05,4.6203603e-05,6.97226458e-05,8.8194763e-05,0.000102347977
0.75,4.29108818e-08,1.60036531e-05,4.4312484e-05,6.79982053e-05,8.66473941e-05,0.000100974066
0.8,3.8896217e-08,1.4006826e-05,4.24262981e-05,6.62779505e-05,8.51034959e-05,9.96029744e-05
0.85,3.61790127e-08,1.20292077e-05,4.05450437e-05,6.45618677e-05,8.35630583e-05,9.82346962e-05
0.9,3.42579647e-08,1.00815614e-05,3.8668724e-05,6.28499434e-05,8.20260708e-05,9.68692235e-05
0.95,3.2849478e-08,8.18418122e-06,3.67973488e-05,6.11421641e-05,8.04925231e-05,9.55065488e-05
1.0,3.17846665e-08,6.37454405e-06,3.49309373e-05,5.94385164e-05,7.89624048e-05,9.41466644e-05
1.05,3.09584383e-08,4.71618553e-06,3.30695221e-05,5.77389867e-05,7.74357056e-05,9.27895629e-05
1.1,3.03028725e-08,3.29700422e-06,3.12131549e-05,5.60435614e-05,7.5912415e-05,9.14352368e-05
1.15,2.97726023e-08,2.19643281e-06,2.93619162e-05,5.4352227e-05,7.43925225e-05,9.00836785e-05
1.2,2.93364396e-08,1.43168098e-06,2.75159288e-05,5.26649699e-05,7.28760178e-05,8.87348805e-05
1.25,2.89723915e-08,9.45021333e-07,2.56753803e-05,5.09817768e-05,7.13628903e-05,8.73888353e-05
1.3,2.8664596e-08,6.4880126e-07,2.38405589e-05,4.93026341e-05,6.98531293e-05,8.60455353e-05
1.35,2.84013803e-08,4.69105082e-07,2.20119116e-05,4.76275285e-05,6.83467243e-05,8.47049731e-05
1.4,2.81739981e-08,3.57591067e-07,2.01901413e-05,4.59564469e-05,6.68436644e-05,8.3367141e-05
1.45,2.79757887e-08,2.85945557e-07,1.83763715e-05,4.42893763e-05,6.53439388e-05,8.20320315e-05
1.5,2.78016043e-08,2.38137967e-07,1.65724292e-05,4.26263046e-05,6.38475364e-05,8.0699637e-05
1.55,2.7647413e-08,2.05046404e-07,1.47813353e-05,4.09672201e-05,6.23544463e-05,7.93699499e-05
1.6,2.75100181e-08,1.81358774e-07,1.30081538e-05,3.93121123e-05,6.08646571e-05,7.80429626e-05
1.65,2.73868567e-08,1.63886303e-07,1.12614305e-05,3.76609727e-05,5.93781572e-05,7.67186675e-05
1.7,2.72758527e-08,1.50652331e-07,9.55549068e-06,3.60137953e-05,5.78949351e-05,7.53970567e-05
1.75,2.7175309e-08,1.40392563e-07,7.91363314e-06,3.43705783e-05,5.64149787e-05,7.40781226e-05
1.8,2.70838255e-08,1.32274207e-07,6.37122222e-06,3.27313259e-05,5.49382757e-05,7.27618574e-05
1.85,2.70002382e-08,1.25733636e-07,4.97537271e-06,3.10960521e-05,5.34648136e-05,7.14482531e-05
1.9,2.6923572e-08,1.20379848e-07,3.77602895e-06,2.94647847e-05,5.19945792e-05,7.0137302e-05
1.95,2.68530044e-08,1.15935431e-07,2.80760434e-06,2.78375739e-05,5.05275592e-05,6.88289958e-05
2.0,2.67878373e-08,1.12199513e-07,2.0724688e-06,2.62145039e-05,4.90637396e-05,6.75233266e-05
2.05,2.67274742e-08,1.09023931e-07,1.54118656e-06,2.45957118e-05,4.76031056e-05,6.62202861e-05
2.1,2.66714029e-08,1.06297545e-07,1.16832365e-06,2.29814183e-05,4.6145642e-05,6.49198659e-05
2.15,2.66191811e-08,1.03935702e-07,9.09141986e-07,2.13719767e-05,4.46913327e-05,6.36220576e-05
2.2,2.65704249e-08,1.01873014e-07,7.28006422e-07,1.97679534e-05,4.32401608e-05,6.23268525e-05
2.25,2.65247997e-08,1.0005833e-07,5.99537489e-07,1.81702591e-05,4.17921082e-05,6.10342417e-05
2.3,2.64820126e-08,9.84511555e-08,5.06630288e-07,1.65803664e-05,4.03471559e-05,5.97442162e-05
2.35,2.64418058e-08,9.70190933e-08,4.38002952e-07,1.50006653e-05,3.89052836e-05,5.84567667e-05
2.4,2.64039521e-08,9.57359608e-08,3.86229751e-07,1.34350398e-05,3.746647e-05,5.71718836e-05
2.45,2.63682499e-08,9.45804045e-08,3.46379784e-07,1.18897677e-05,3.60306923e-05,5.58895569e-05
2.5,2.63345201e-08,9.35348605e-08,3.1513087e-07,1.03748318e-05,3.45979269e-05,5.46097764e-05
2.55,2.63026031e-08,9.25847679e-08,2.90205879e-07,8.90558102e-06,3.31681489e-05,5.33325313e-05
2.6,2.62723558e-08,9.17179662e-08,2.70015491e-07,7.50423992e-06,3.17413338e-05,5.20578105e-05
2.65,2.624365e-08,9.09242305e-08,2.53430285e-07,6.19997641e-06,3.03174576e-05,5.07856022e-05
2.7,2.62163702e-08,9.01949081e-08,2.39633593e-07,5.02560829e-06,2.88964993e-05,4.9515894e-05
2.75,2.61904123e-08,8.9522633e-08,2.28025075e-07,4.01003557e-06,2.74784441e-05,4.82486728e-05
2.8,2.6165682e-08,8.89010997e-08,2.18156544e-07,3.16899606e-06,2.60632888e-05,4.69839246e-05
2.85,2.61420938e-08,8.8324882e-08,2.09688536e-07,2.49982582e-06,2.46510505e-05,4.57216345e-05
2.9,2.61195702e-08,8.77892874e-08,2.02360469e-07,1.98377566e-06,2.32417819e-05,4.44617863e-05
2.95,2.60980402e-08,8.72902391e-08,1.95969804e-07,1.59355139e-06,2.18355945e-05,4.32043626e-05
3.0,2.60774393e-08,8.68241795e-08,1.90357295e-07,1.30091886e-06,2.04326977e-05,4.19493446e-05
3.05,2.60577084e-08,8.63879916e-08,1.8539638e-07,1.08129225e-06,1.90334617e-05,4.06967118e-05
3.1,2.60387932e-08,8.59789334e-08,1.80985476e-07,9.15268666e-07,1.76385198e-05,3.94464414e-05
3.15,2.6020644e-08,8.55945841e-08,1.77042288e-07,7.88365741e-07,1.62489324e-05,3.81985086e-05
3.2,2.60032151e-08,8.52327989e-08,1.73499573e-07,6.90083639e-07,1.48664477e-05,3.6952886e-05
3.25,2.59864642e-08,8.48916714e-08,1.70301947e-07,6.1290241e-07,1.34939051e-05,3.5709543e-05
3.3,2.59703525e-08,8.45695014e-08,1.67403451e-07,5.51445389e-07,1.21358342e-05,3.44684457e-05
3.35,2.59548438e-08,8.42647683e-08,1.6476568e-07,5.01850085e-07,1.07992797e-05,3.32295565e-05
3.4,2.59399049e-08,8.39761084e-08,1.62356332e-07,4.61318019e-07,9.49479305e-06,3.19928334e-05
3.45,2.59255049e-08,8.37022949e-08,1.6014807e-07,4.27799993e-07,8.23731801e-06,3.07582298e-05
3.5,2.5911615e-08,8.34422218e-08,1.58117629e-07,3.99777934e-07,7.04635832e-06,2.95256942e-05
3.55,2.58982086e-08,8.31948891e-08,1.562451e-07,3.76113696e-07,5.94455623e-06,2.82951704e-05
3.6,2.58852607e-08,8.2959391e-08,1.5451336e-07,3.55943766e-07,4.95411486e-06,2.70665977e-05
3.65,2.58727483e-08,8.27349045e-08,1.52907612e-07,3.38605369e-07,4.09174402e-06,2.58399125e-05
3.7,2.58606497e-08,8.2520681e-08,1.51415009e-07,3.23584117e-07,3.36432495e-06,2.46150507e-05
3.75,2.58489446e-08,8.23160374e-08,1.50024354e-07,3.10476542e-07,2.76761718e-06,2.33919536e-05
3.8,2.58376142e-08,8.21203497e-08,1.48725844e-07,2.98962991e-07,2.28848399e-06,2.21705764e-05
3.85,2.58266407e-08,8.19330464e-08,1.47510867e-07,2.88787816e-07,1.90901228e-06,2.09509042e-05
3.9,2.58160076e-08,8.17536036e-08,1.46371825e-07,2.79744724e-07,1.61041761e-06,1.9732978e-05
3.95,2.58056991e-08,8.15815395e-08,1.45302e-07,2.71665859e-07,1.37558132e-06,1.85169375e-05
4.0,2.57957008e-08,8.1416411e-08,1.44295423e-07,2.64413561e-07,1.19016311e-06,1.73030908e-05
4.05,2.57859988e-08,8.12578094e-08,1.43346782e-07,2.57874095e-07,1.04275037e-06,1.60920242e-05
4.1,2.57765801e-08,8.11053573e-08,1.42451329e-07,2.51952843e-07,9.24529446e-07,1.48847746e-05
4.15,2.57674325e-08,8.09587058e-08,1.41604814e-07,2.46570576e-07,8.28802193e-07,1.36830903e-05
4.2,2.57585445e-08,8.08175318e-08,1.40803419e-07,2.41660538e-07,7.5051254e-07,1.24898104e-05
4.25,2.57499052e-08,8.06815354e-08,1.40043706e-07,2.37166163e-07,6.85846471e-07,1.13093798e-05
4.3,2.57415043e-08,8.05504385e-08,1.39322572e-07,2.33039252e-07,6.31917452e-07,1.01484776e-05
4.35,2.57333322e-08,8.04239822e-08,1.38637208e-07,2.29238528e-07,5.8652825e-07,9.01663712e-06
4.4,2.57253795e-08,8.03019254e-08,1.37985069e-07,2.25728467e-07,5.47994127e-07,7.92658603e-06
4.45,2.57176377e-08,8.01840437e-08,1.37363842e-07,2.22478357e-07,5.15012776e-07,6.89387908e-06
4.5,2.57100984e-08,8.00701272e-08,1.36771418e-07,2.19461531e-07,4.86568916e-07,5.93541716e-06
4.55,2.57027538e-08,7.99599801e-08,1.36205875e-07,2.16654737e-07,4.61864178e-07,5.06683105e-06
4.6,2.56955966e-08,7.98534192e-08,1.35665456e-07,2.14037623e-07,4.40265389e-07,4.29942045e-06
4.65,2.56886196e-08,7.97502728e-08,1.3514855e-07,2.11592307e-07,4.21266193e-07,3.63787147e-06
4.7,2.56818162e-08,7.96503801e-08,1.34653681e-07,2.09303025e-07,4.04458381e-07,3.07974045e-06
4.75,2.56751799e-08,7.95535901e-08,1.34179491e-07,2.07155832e-07,3.89510321e-07,2.61675612e-06
4.8,2.56687048e-08,7.94597611e-08,1.3372473e-07,2.0513835e-07,3.76150597e-07,2.23712591e-06
4.85,2.5662385e-08,7.93687598e-08,1.33288246e-07,2.03239564e-07,3.64155512e-07,1.92784458e-06
4.9,2.56562151e-08,7.92804607e-08,1.32868975e-07,2.01449639e-07,3.53339465e-07,1.67638591e-06
4.95,2.56501898e-08,7.91947457e-08,1.32465933e-07,1.99759769e-07,3.43547483e-07,1.47164339e-06
5.0,2.56443041e-08,7.91115035e-08,1.32078208e-07,1.98162052e-07,3.34649393e-07,1.30427452e-06
5.05,2.56385533e-08,7.9030629e-08,1.31704957e-07,1.96649377e-07,3.26535221e-07,1.16667832e-06
5.1,2.56329327e-08,7.89520229e-08,1.31345393e-07,1.95215329e-07,3.19111564e-07,1.0527949e-06
5.15,2.56274381e-08,7.88755915e-08,1.30998788e-07,1.93854107e-07,3.12298682e-07,9.57847479e-07
5.2,2.56220652e-08,7.88012462e-08,1.30664461e-07,1.92560457e-07,3.06028167e-07,8.78090145e-07
5.25,2.56168101e-08,7.87289029e-08,1.30341781e-07,1.91329605e-07,3.00241068e-07,8.10588178e-07
5.3,2.56116691e-08,7.86584822e-08,1.30030157e-07,1.9015721e-07,2.94886353e-07,7.53037969e-07
5.35,2.56066383e-08,7.85899088e-08,1.29729036e-07,1.8903931e-07,2.89919669e-07,7.0362437e-07
5.4,2.56017144e-08,7.85231111e-08,1.29437903e-07,1.87972289e-07,2.85302311e-07,6.60909855e-07
5.45,2.55968941e-08,7.84580214e-08,1.29156275e-07,1.86952837e-07,2.81000378e-07,6.23749302e-07
5.5,2.5592174e-08,7.83945752e-08,1.28883698e-07,1.85977919e-07,2.76984069e-07,5.91224772e-07
5.55,2.55875512e-08,7.83327113e-08,1.28619749e-07,1.85044749e-07,2.73227099e-07,5.6259566e-07
5.6,2.55830226e-08,7.82723714e-08,1.28364028e-07,1.84150763e-07,2.69706207e-07,5.37260516e-07
5.65,2.55785855e-08,7.82135001e-08,1.28116162e-07,1.832936e-07,2.66400747e-07,5.1472773e-07
5.7,2.55742372e-08,7.81560448e-08,1.27875796e-07,1.82471082e-07,2.63292337e-07,4.94592919e-07
5.75,2.55699749e-08,7.8099955e-08,1.276426e-07,1.81681195e-07,2.60364567e-07,4.76521392e-07
5.8,2.55657963e-08,7.80451828e-08,1.27416261e-07,1.80922077e-07,2.57602745e-07,4.60234485e-07
5.85,2.55616988e-08,7.79916827e-08,1.27196484e-07,1.80192001e-07,2.54993685e-07,4.45498853e-07
5.9,2.55576802e-08,7.79394109e-08,1.26982989e-07,1.79489367e-07,2.52525522e-07,4.32118019e-07
5.95,2.55537383e-08,7.78883257e-08,1.26775516e-07,1.78812688e-07,2.50187556e-07,4.19925679e-07
6.0,2.55498708e-08,7.78383875e-08,1.26573814e-07,1.78160578e-07,2.47970115e-07,4.0878036e-07
6.05,2.55460757e-08,7.77895581e-08,1.26377648e-07,1.77531751e-07,2.45864434e-07,3.9856113e-07
6.1,2.55423511e-08,7.77418012e-08,1.26186796e-07,1.76925005e-07,2.43862558e-07,3.89164143e-07
6.15,2.5538695e-08,7.7695082e-08,1.26001048e-07,1.76339218e-07,2.41957251e-07,3.80499832e-07
6.2,2.55351055e-08,7.76493672e-08,1.25820201e-07,1.75773343e-07,2.40141915e-07,3.72490625e-07
6.25,2.55315809e-08,7.76046248e-08,1.25644069e-07,1.752264e-07,2.38410527e-07,3.6506907e-07
6.3,2.55281194e-08,7.75608243e-08,1.25472468e-07,1.74697472e-07,2.36757576e-07,3.58176291e-07
6.35,2.55247194e-08,7.75179365e-08,1.2530523e-07,1.74185698e-07,2.35178014e-07,3.5176071e-07
6.4,2.55213793e-08,7.74759331e-08,1.25142191e-07,1.73690272e-07,2.33667204e-07,3.45776987e-07
6.45,2.55180974e-08,7.74347872e-08,1.24983195e-07,1.73210436e-07,2.32220885e-07,3.40185133e-07
6.5,2.55148724e-08,7.7394473e-08,1.24828097e-07,1.72745478e-07,2.30835133e-07,3.34949766e-07
6.55,2.55117028e-08,7.73549657e-08,1.24676756e-07,1.72294728e-07,2.29506328e-07,3.30039487e-07
6.6,2.55085872e-08,7.73162413e-08,1.24529037e-07,1.71857554e-07,2.28231128e-07,3.25426348e-07
