vds,vb1,vb2,vb3,vb4,vb5,vb6
0.0,0.000489238806,0.00155512498,0.00233815635,0.00292000968,0.00329718717,0.00354694931
0.05,0.00039966122,0.00145189023,0.00223260977,0.00281748271,0.00320179409,0.00346003165
0.1,0.000312798998,0.00135120893,0.00212950692,0.00271710525,0.00310818224,0.00337455373
0.15,0.00022950132,0.00125301072,0.00202878154,0.00261882468,0.00301631296,0.00329048796
0.2,0.000152642984,0.00115722926,0.00193036925,0.00252258965,0.00292614846,0.00320780727
0.25,9.04283276e-05,0.0010638033,0.00183420742,0.00242834999,0.00283765167,0.00312648507
0.3,5.33516912e-05,0.000972678459,0.00174023522,0.00233605662,0.00275078627,0.00304649525
0.35,3.70765491e-05,0.000883810491,0.00164839364,0.00224566155,0.00266551659,0.0029678121
0.4,2.9790619e-05,0.000797171119,0.00155862562,0.00215711788,0.00258180762,0.00289041033
0.45,2.57453129e-05,0.000712759307,0.00147087616,0.00207037984,0.00249962503,0.00281426507
0.5,2.30674798e-05,0.000630624002,0.00138509251,0.00198540279,0.00241893516,0.00273935182
0.55,2.1102891e-05,0.000550912005,0.00130122425,0.00190214335,0.00233970505,0.00266564653
0.6,1.95737387e-05,0.000473970726,0.00121922356,0.00182055935,0.00226190246,0.00259312555
0.65,1.83387744e-05,0.000400560516,0.00113904531,0.00174060989,0.00218549593,0.00252176566
0.7,1.73159123e-05,0.000332216469,0.00106064741,0.00166225535,0.00211045475,0.0024515441
0.75,1.64528054e-05,0.000271515548,0.000983991227,0.00158545731,0.00203674903,0.00238243857
0.8,1.57138461e-05,0.000221318715,0.000909042331,0.00151017848,0.00196434968,0.00231442727
0.85,1.50736684e-05,0.000182703966,0.000835771996,0.00143638255,0.0018932284,0.00224748888
0.9,1.451357e-05,0.00015413561,0.000764160256,0.00136403393,0.00182335769,0.00218160257
0.95,1.40193881e-05,0.0001329915,0.000694202999,0.00129309741,0.00175471078,0.00211674807
1.0,1.35801659e-05,0.000117001207,0.000625929718,0.00122353755,0.00168726159,0.00205290557
1.05,1.31872752e-05,0.000104581226,0.000559449487,0.00115531787,0.00162098462,0.00199005579
1.1,1.28338186e-05,9.4689746e-05,0.000495063354,0.00108839939,0.00155585485,0.00192817994
1.15,1.2514211e-05,8.66393911e-05,0.000433484697,0.00102273844,0.00149184752,0.00186725969
1.2,1.22238781e-05,7.99659832e-05,0.000376071623,0.000958283106,0.00142893789,0.00180727715
1.25,1.19590363e-05,7.43472266e-05,0.000324647756,0.000894967602,0.0013671009,0.00174821482
1.3,1.17165273e-05,6.95532299e-05,0.000280645352,0.000832703929,0.0013063106,0.00169005556
1.35,1.14936936e-05,6.54159538e-05,0.00024433117,0.000771371363,0.0012465394,0.00163278247
1.4,1.12882828e-05,6.18098729e-05,0.000214916387,0.000710809483,0.00118775689,0.00157637882
1.45,1.10983728e-05,5.86394027e-05,0.000191167468,0.000650835761,0.00112992805,0.00152082793
1.5,1.09223136e-05,5.58305123e-05,0.000171872935,0.000591339167,0.00107301048,0.00146611294
1.55,1.07586802e-05,5.33249938e-05,0.000156028017,0.000532519451,0.00101695015,0.00141221663
1.6,1.06062361e-05,5.10764616e-05,0.000142855887,0.000475231556,0.000961674846,0.00135912107
1.65,1.04639025e-05,4.90475028e-05,0.000131771453,0.000421088322,0.000907084496,0.00130680709
1.7,1.03307345e-05,4.72076131e-05,0.000122336289,0.00037193161,0.000853037908,0.00125525364
1.75,1.02059006e-05,4.55316748e-05,0.000114220227,0.000328989254,0.000799337974,0.00120443677
1.8,1.00886664e-05,4.39988211e-05,0.000107172215,0.000292493916,0.000745725002,0.0011543281
1.85,9.9783806e-06,4.2591574e-05,0.000100999138,0.000261917363,0.000691905138,0.00110489264
1.9,9.87446395e-06,4.12951849e-05,9.55506388e-05,0.000236394777,0.000637664953,0.00105608539
1.95,9.77639924e-06,4.00971222e-05,9.07082482e-05,0.000215026828,0.000583116362,0.00100784636
2.0,9.6837234e-06,3.89866708e-05,8.63775546e-05,0.000197018317,0.000528995352,0.000960093324
2.05,9.59602056e-06,3.79546143e-05,8.24825073e-05,0.000181715335,0.000476727057,0.000912711516
2.1,9.51291622e-06,3.6992983e-05,7.89612311e-05,0.000168597458,0.000428012345,0.000865540709
2.15,9.43407222e-06,3.60948496e-05,7.57629144e-05,0.000157255702,0.00038417356,0.000818362302
2.2,9.35918248e-06,3.52541647e-05,7.2845471e-05,0.000147369333,0.000345778648,0.000770896276
2.25,9.28796928e-06,3.44656219e-05,7.01737626e-05,0.000138685936,0.000312708873,0.000722830841
2.3,9.22018004e-06,3.37245477e-05,6.77182342e-05,0.000131005586,0.00028444012,0.000673921907
2.35,9.1555846e-06,3.30268096e-05,6.54538565e-05,0.000124168679,0.000260300394,0.000624187981
2.4,9.09397272e-06,3.23687402e-05,6.3359297e-05,0.000118046727,0.000239624311,0.000574143344
2.45,9.03515207e-06,3.17470737e-05,6.14162664e-05,0.000112535405,0.000221821485,0.000524882043
2.5,8.97894628e-06,3.11588926e-05,5.96089971e-05,0.000107549298,0.000206395248,0.000477837078
2.55,8.92519338e-06,3.06015821e-05,5.79238258e-05,0.000103017911,0.000192938479,0.000434312574
2.6,8.87374437e-06,3.00727924e-05,5.63488551e-05,9.88826185e-05,0.000181121229,0.000395115193
2.65,8.8244619e-06,2.95704055e-05,5.48736784e-05,9.50943103e-05,0.000170676942,0.000360479457
2.7,8.77721923e-06,2.90925077e-05,5.34891543e-05,9.161157e-05,0.000161389971,0.0003302113
2.75,8.73189915e-06,2.86373654e-05,5.2187221e-05,8.83992448e-05,0.000153085139,0.000303884507
2.8,8.68839319e-06,2.82034046e-05,5.09607416e-05,8.54273197e-05,0.000145619359,0.0002809927
2.85,8.64660075e-06,2.77891928e-05,4.98033758e-05,8.26700221e-05,0.000138875031,0.000261038027
2.9,8.60642846e-06,2.73934233e-05,4.87094722e-05,8.01051052e-05,0.000132754862,0.000243572077
2.95,8.56778948e-06,2.70149021e-05,4.76739773e-05,7.77132705e-05,0.000127177838,0.000228208809
3.0,8.53060303e-06,2.6652536e-05,4.66923587e-05,7.54776989e-05,0.000122076057,0.000214623617
3.05,8.49479379e-06,2.63053217e-05,4.57605398e-05,7.33836678e-05,0.000117392256,0.000202546678
3.1,8.46029149e-06,2.59723373e-05,4.48748441e-05,7.14182367e-05,0.000113077851,0.000191754707
3.15,8.4270305e-06,2.5652734e-05,4.40319473e-05,6.9569987e-05,0.00010909139,0.000182062986
3.2,8.39494943e-06,2.53457289e-05,4.32288363e-05,6.78288059e-05,0.00010539731,0.000173318361
3.25,8.36399083e-06,2.50505989e-05,4.24627737e-05,6.61857059e-05,0.000101964946,0.000165393376
3.3,8.33410083e-06,2.47666752e-05,4.17312669e-05,6.46326736e-05,9.87677263e-05,0.000158181475
3.35,8.30522894e-06,2.4493338e-05,4.10320415e-05,6.31625413e-05,9.57825214e-05,0.000151593132
3.4,8.2773277e-06,2.42300122e-05,4.03630179e-05,6.17688792e-05,9.29891098e-05,0.000145552732
3.45,8.25035255e-06,2.39761637e-05,3.97222911e-05,6.0445903e-05,9.03697397e-05,0.000139996079
3.5,8.22426155e-06,2.37312955e-05,3.91081126e-05,5.91883953e-05,8.79087667e-05,0.000134868387
3.55,8.1990152e-06,2.34949447e-05,3.85188747e-05,5.79916379e-05,8.55923527e-05,0.000130122672
3.6,8.17457629e-06,2.32666796e-05,3.79530966e-05,5.68513538e-05,8.34082148e-05,0.000125718436
3.65,8.15090974e-06,2.30460971e-05,3.74094125e-05,5.57636572e-05,8.13454142e-05,0.000121620619
3.7,8.1279824e-06,2.28328204e-05,3.68865601e-05,5.47250093e-05,7.93941785e-05,0.000117798728
3.75,8.10576299e-06,2.26264969e-05,3.63833714e-05,5.37321813e-05,7.75457514e-05,0.00011422613
3.8,8.08422191e-06,2.24267961e-05,3.5898764e-05,5.27822206e-05,7.57922645e-05,0.000110879471
3.85,8.06333118e-06,2.22334084e-05,3.54317333e-05,5.18724224e-05,7.41266285e-05,0.000107738193
3.9,8.04306429e-06,2.20460428e-05,3.49813458e-05,5.10003042e-05,7.25424392e-05,0.000104784132
3.95,8.02339613e-06,2.18644261e-05,3.45467328e-05,5.01635833e-05,7.10338975e-05,0.000102001185
4.0,8.0043029e-06,2.16883014e-05,3.41270849e-05,4.93601574e-05,6.95957395e-05,9.93750267e-05
4.05,7.98576199e-06,2.15174265e-05,3.37216471e-05,4.85880871e-05,6.82231769e-05,9.68928753e-05
4.1,7.96775199e-06,2.13515736e-05,3.33297144e-05,4.78455804e-05,6.6911844e-05,9.45432907e-05
4.15,7.9502525e-06,2.11905275e-05,3.29506275e-05,4.71309789e-05,6.56577531e-05,9.23160044e-05
4.2,7.93324416e-06,2.10340855e-05,3.25837693e-05,4.64427461e-05,6.4457254e-05,9.0201775e-05
4.25,7.91670857e-06,2.08820559e-05,3.22285616e-05,4.57794556e-05,6.33069994e-05,8.81922631e-05
4.3,7.90062818e-06,2.07342573e-05,3.18844621e-05,4.51397824e-05,6.22039143e-05,8.62799254e-05
4.35,7.88498631e-06,2.05905184e-05,3.15509616e-05,4.45224932e-05,6.11451686e-05,8.44579217e-05
4.4,7.86976705e-06,2.04506768e-05,3.12275817e-05,4.39264392e-05,6.01281539e-05,8.27200359e-05
4.45,7.85495525e-06,2.03145788e-05,3.0913872e-05,4.33505488e-05,5.91504616e-05,8.10606066e-05
4.5,7.84053643e-06,2.01820786e-05,3.06094089e-05,4.27938212e-05,5.82098648e-05,7.9474467e-05
4.55,7.8264968e-06,2.00530377e-05,3.03137928e-05,4.22553209e-05,5.7304301e-05,7.79568919e-05
4.6,7.81282318e-06,1.99273249e-05,3.00266472e-05,4.17341722e-05,5.64318578e-05,7.65035525e-05
4.65,7.79950298e-06,1.98048153e-05,2.97476163e-05,4.12295545e-05,5.5590759e-05,7.51104752e-05
4.7,7.78652417e-06,1.96853904e-05,2.94763643e-05,4.07406984e-05,5.47793532e-05,7.37740063e-05
4.75,7.77387524e-06,1.95689371e-05,2.92125735e-05,4.02668815e-05,5.39961028e-05,7.24907806e-05
4.8,7.76154519e-06,1.94553482e-05,2.89559435e-05,3.98074248e-05,5.32395745e-05,7.12576938e-05
4.85,7.74952347e-06,1.93445212e-05,2.87061896e-05,3.93616899e-05,5.25084304e-05,7.00718773e-05
4.9,7.73780001e-06,1.92363587e-05,2.84630422e-05,3.89290754e-05,5.18014209e-05,6.89306768e-05
4.95,7.72636513e-06,1.91307678e-05,2.82262456e-05,3.8509015e-05,5.11173766e-05,6.78316326e-05
5.0,7.71520956e-06,1.90276597e-05,2.79955573e-05,3.81009744e-05,5.04552028e-05,6.67724622e-05
5.05,7.70432442e-06,1.89269497e-05,2.77707469e-05,3.77044494e-05,4.98138732e-05,6.57510445e-05
5.1,7.69370117e-06,1.8828557e-05,2.75515954e-05,3.73189636e-05,4.91924251e-05,6.47654061e-05
5.15,7.68333166e-06,1.87324043e-05,2.73378948e-05,3.69440667e-05,4.85899539e-05,6.38137087e-05
5.2,7.67320802e-06,1.86384178e-05,2.7129447e-05,3.65793327e-05,4.80056095e-05,6.28942375e-05
5.25,7.66332273e-06,1.85465267e-05,2.69260637e-05,3.62243584e-05,4.74385919e-05,6.20053916e-05
5.3,7.65366854e-06,1.84566635e-05,2.67275653e-05,3.58787614e-05,4.68881476e-05,6.11456742e-05
5.35,7.6442385e-06,1.83687634e-05,2.65337807e-05,3.55421795e-05,4.63535665e-05,6.03136845e-05
5.4,7.63502591e-06,1.82827644e-05,2.63445467e-05,3.52142688e-05,4.58341784e-05,5.95081103e-05
5.45,7.62602434e-06,1.81986071e-05,2.61597078e-05,3.48947031e-05,4.53293509e-05,5.87277211e-05
5.5,7.61722759e-06,1.81162344e-05,2.59791153e-05,3.45831721e-05,4.48384862e-05,5.79713618e-05
5.55,7.60862972e-06,1.80355917e-05,2.58026272e-05,3.42793812e-05,4.4361019e-05,5.72379471e-05
5.6,7.60022499e-06,1.79566266e-05,2.5630108e-05,3.39830497e-05,4.38964145e-05,5.65264562e-05
5.65,7.59200786e-06,1.78792887e-05,2.54614279e-05,3.3693911e-05,4.3444166e-05,5.58359284e-05
5.7,7.58397301e-06,1.78035296e-05,2.52964629e-05,3.34117106e-05,4.30037935e-05,5.51654586e-05
5.75,7.57611532e-06,1.77293029e-05,2.51350942e-05,3.31362064e-05,4.25748416e-05,5.45141932e-05
5.8,7.56842984e-06,1.76565639e-05,2.4977208e-05,3.28671674e-05,4.21568783e-05,5.38813267e-05
5.85,7.5609118e-06,1.75852697e-05,2.48226956e-05,3.26043731e-05,4.17494932e-05,5.32660987e-05
5.9,7.5535566e-06,1.75153789e-05,2.46714524e-05,3.23476133e-05,4.13522963e-05,5.266779e-05
5.95,7.54635979e-06,1.74468519e-05,2.45233784e-05,3.20966869e-05,4.09649171e-05,5.20857206e-05
6.0,7.5393171e-06,1.73796503e-05,2.43783775e-05,3.1851402e-05,4.05870025e-05,5.15192468e-05
6.05,7.53242439e-06,1.73137373e-05,2.42363574e-05,3.16115751e-05,4.02182169e-05,5.09677588e-05
6.1,7.52567766e-06,1.72490775e-05,2.40972299e-05,3.13770305e-05,3.98582404e-05,5.04306786e-05
6.15,7.51907304e-06,1.71856365e-05,2.39609097e-05,3.11476001e-05,3.95067678e-05,4.99074578e-05
6.2,7.51260682e-06,1.71233814e-05,2.38273153e-05,3.09231231e-05,3.91635086e-05,4.9397576e-05
6.25,7.50627538e-06,1.70622804e-05,2.3696368e-05,3.07034452e-05,3.88281851e-05,4.89005388e-05
6.3,7.50007524e-06,1.70023028e-05,2.35679923e-05,3.04884188e-05,3.85005323e-05,4.84158763e-05
6.35,7.49400302e-06,1.69434191e-05,2.34421157e-05,3.02779021e-05,3.81802973e-05,4.79431417e-05
6.4,7.48805548e-06,1.68856006e-05,2.3318668e-05,3.00717593e-05,3.78672381e-05,4.74819097e-05
6.45,7.48222944e-06,1.68288198e-05,2.31975821e-05,2.98698599e-05,3.75611234e-05,4.70317754e-05
6.5,7.47652185e-06,1.677305e-05,2.30787929e-05,2.96720786e-05,3.72617317e-05,4.6592353e-05
6.55,7.47092977e-06,1.67182654e-05,2.29622381e-05,2.94782951e-05,3.69688514e-05,4.61632747e-05
6.6,7.46545032e-06,1.66644412e-05,2.28478572e-05,2.92883938e-05,3.66822794e-05,4.57441898e-05
