vds,vb1,vb2,vb3,vb4,vb5,vb6
0.0,2.03446233e-05,5.1553885e-05,7.7179708e-05,9.50746566e-05,0.000108443404,0.000117296486
0.05,1.75499743e-05,4.85854204e-05,7.41740027e-05,9.21768742e-05,0.000105716156,0.000114785984
0.1,1.48082111e-05,4.56718993e-05,7.12224411e-05,8.93273197e-05,0.000103030164,0.000112309703
0.15,1.21254956e-05,4.28122005e-05,6.83238718e-05,8.65250447e-05,0.000100384691,0.000109867096
0.2,9.51869721e-06,4.00052515e-05,6.54771615e-05,8.37691141e-05,9.77790141e-05,0.000107457623
0.25,7.03550829e-06,3.72500482e-05,6.26811913e-05,8.10586026e-05,9.52124152e-05,0.000105080749
0.3,4.80717207e-06,3.45456842e-05,5.99348564e-05,7.83925906e-05,9.26841811e-05,0.000102735943
0.35,3.09912666e-06,3.18914e-05,5.72370688e-05,7.57701643e-05,9.01936014e-05,0.000100422675
0.4,2.0946215e-06,2.928666e-05,5.45867636e-05,7.31904157e-05,8.77399675e-05,9.8140418e-05
0.45,1.60024014e-06,2.67312812e-05,5.19829072e-05,7.06524461e-05,8.53225729e-05,9.5888644e-05
0.5,1.34117195e-06,2.42256599e-05,4.94245068e-05,6.81553695e-05,8.29407147e-05,9.36668262e-05
0.55,1.18120212e-06,2.17711982e-05,4.69106192e-05,6.56983179e-05,8.05936953e-05,9.14744394e-05
0.6,1.06880124e-06,1.9371142e-05,4.44403604e-05,6.32804461e-05,7.82808255e-05,8.93109602e-05
0.65,9.833352e-07,1.70322793e-05,4.20129134e-05,6.0900937e-05,7.60014269e-05,8.71758691e-05
0.7,9.1517609e-07,1.47683731e-05,3.96275374e-05,5.8559006e-05,7.37548356e-05,8.50686516e-05
0.75,8.5911834e-07,1.26066424e-05,3.72835781e-05,5.62539046e-05,7.1540405e-05,8.29888002e-05
0.8,8.12008025e-07,1.05972153e-05,3.49804815e-05,5.39849232e-05,6.93575089e-05,8.09358163e-05
0.85,7.71771749e-07,8.81660888e-06,3.27178166e-05,5.17513925e-05,6.72055439e-05,7.89092117e-05
0.9,7.36965195e-07,7.34182564e-06,3.04953133e-05,4.95526842e-05,6.50839318e-05,7.6908511e-05
0.95,7.06539129e-07,6.19652957e-06,2.83129287e-05,4.73882097e-05,6.29921211e-05,7.49332525e-05
1.0,6.79706942e-07,5.33505151e-06,2.61709653e-05,4.52574186e-05,6.09295877e-05,7.29829905e-05
1.05,6.5586428e-07,4.68437545e-06,2.4070289e-05,4.31597949e-05,5.8895836e-05,7.10572957e-05
1.1,6.34537572e-07,4.18173432e-06,2.20127359e-05,4.10948534e-05,5.6890398e-05,6.9155757e-05
1.15,6.15349618e-07,3.78326361e-06,2.00018923e-05,3.90621329e-05,5.49128325e-05,6.72779816e-05
1.2,5.97995794e-07,3.45991713e-06,1.80445782e-05,3.70611891e-05,5.29627237e-05,6.54235956e-05
1.25,5.8222713e-07,3.19231945e-06,1.61534866e-05,3.50915838e-05,5.10396787e-05,6.35922445e-05
1.3,5.67838003e-07,2.9671958e-06,1.43509475e-05,3.31528696e-05,4.91433245e-05,6.17835921e-05
1.35,5.54657003e-07,2.77517644e-06,1.26713147e-05,3.12445687e-05,4.72733038e-05,5.9997321e-05
1.4,5.42540049e-07,2.60946339e-06,1.11556257e-05,2.93661407e-05,4.54292703e-05,5.8233131e-05
1.45,5.31365117e-07,2.46500401e-06,9.83569396e-06,2.75169392e-05,4.36108818e-05,5.64907384e-05
1.5,5.21028151e-07,2.33796357e-06,8.71941571e-06,2.56961647e-05,4.18177918e-05,5.47698741e-05
1.55,5.11439865e-07,2.22537831e-06,7.79108096e-06,2.39028547e-05,4.0049638e-05,5.30702824e-05
1.6,5.02523203e-07,2.12492103e-06,7.02267006e-06,2.21360564e-05,3.8306026e-05,5.13917181e-05
1.65,4.9421131e-07,2.03473862e-06,6.38441783e-06,2.03955637e-05,3.65865064e-05,4.97339442e-05
1.7,4.86445894e-07,1.95333707e-06,5.85012011e-06,1.86839706e-05,3.48905398e-05,4.80967288e-05
1.75,4.791759e-07,1.87949846e-06,5.39854171e-06,1.70107686e-05,3.32174465e-05,4.64798406e-05
1.8,4.72356415e-07,1.81221995e-06,5.01307099e-06,1.53972771e-05,3.15663289e-05,4.48830443e-05
1.85,4.65947774e-07,1.75066833e-06,4.6808661e-06,1.38770845e-05,2.99359583e-05,4.33060942e-05
1.9,4.59914817e-07,1.69414558e-06,4.39199997e-06,1.24867448e-05,2.83246153e-05,4.1748725e-05
1.95,4.54226264e-07,1.64206256e-06,4.13875408e-06,1.12514816e-05,2.67298902e-05,4.02106406e-05
2.0,4.48854195e-07,1.59391855e-06,3.9150755e-06,1.01776582e-05,2.51485043e-05,3.8691497e-05
2.05,4.43773613e-07,1.5492853e-06,3.71617132e-06,9.25570585e-06,2.35763602e-05,3.71908795e-05
2.1,4.38962072e-07,1.50779438e-06,3.53820845e-06,8.46760096e-06,2.20093159e-05,3.57082674e-05
2.15,4.34399357e-07,1.46912706e-06,3.37809137e-06,7.79313511e-06,2.04455054e-05,3.42429849e-05
2.2,4.30067218e-07,1.43300626e-06,3.23329672e-06,7.21337528e-06,1.88897552e-05,3.27941266e-05
2.25,4.25949132e-07,1.39918992e-06,3.10174935e-06,6.71199596e-06,1.73586362e-05,3.13604514e-05
2.3,4.22030112e-07,1.36746569e-06,2.98172853e-06,6.27547652e-06,1.58815252e-05,2.99402319e-05
2.35,4.18296523e-07,1.33764645e-06,2.87179627e-06,5.89282532e-06,1.449367e-05,2.85310561e-05
2.4,4.14735942e-07,1.30956674e-06,2.77074223e-06,5.55516718e-06,1.32244473e-05,2.71296004e-05
2.45,4.11337021e-07,1.28307966e-06,2.6775408e-06,5.25533768e-06,1.20892207e-05,2.5731463e-05
2.5,4.08089377e-07,1.25805437e-06,2.59131738e-06,4.98753404e-06,1.10888904e-05,2.43312939e-05
2.55,4.04983489e-07,1.23437398e-06,2.51132186e-06,4.74703129e-06,1.0214382e-05,2.29236921e-05
2.6,4.02010611e-07,1.21193367e-06,2.4369073e-06,4.52995781e-06,9.45179566e-06,2.15055047e-05
2.65,3.99162699e-07,1.19063923e-06,2.36751292e-06,4.3331198e-06,8.78607356e-06,2.00797267e-05
2.7,3.96432336e-07,1.17040576e-06,2.30265028e-06,4.15386464e-06,8.2029924e-06,1.86595848e-05
2.75,3.93812677e-07,1.15115649e-06,2.24189205e-06,3.98997436e-06,7.68999252e-06,1.72694212e-05
2.8,3.91297393e-07,1.13282189e-06,2.18486277e-06,3.83958237e-06,7.23636501e-06,1.59397652e-05
2.85,3.88880623e-07,1.1153388e-06,2.13123124e-06,3.701108e-06,6.83314016e-06,1.46986034e-05
2.9,3.86556932e-07,1.09864975e-06,2.08070422e-06,3.57320477e-06,6.47286521e-06,1.35643322e-05
2.95,3.84321277e-07,1.0827023e-06,2.03302115e-06,3.45471926e-06,6.14936218e-06,1.25437998e-05
3.0,3.82168966e-07,1.06744851e-06,1.98794973e-06,3.34465815e-06,5.8575045e-06,1.16345054e-05
3.05,3.80095631e-07,1.05284449e-06,1.94528224e-06,3.24216176e-06,5.593025e-06,1.08282253e-05
3.1,3.78097202e-07,1.03884997e-06,1.90483233e-06,3.1464825e-06,5.35235698e-06,1.01141616e-05
3.15,3.76169881e-07,1.02542791e-06,1.86643238e-06,3.05696737e-06,5.13250477e-06,9.48101461e-06
3.2,3.74310119e-07,1.01254423e-06,1.82993119e-06,2.97304361e-06,4.93093945e-06,8.91810663e-06
3.25,3.72514597e-07,1.00016749e-06,1.79519206e-06,2.89420681e-06,4.74551495e-06,8.41587276e-06
3.3,3.70780207e-07,9.88268617e-07,1.76209103e-06,2.82001107e-06,4.57440072e-06,7.96599295e-06
3.35,3.69104037e-07,9.76820751e-07,1.73051551e-06,2.75006086e-06,4.41602738e-06,7.56134445e-06
3.4,3.67483352e-07,9.65798983e-07,1.70036295e-06,2.68400411e-06,4.26904295e-06,7.1958783e-06
3.45,3.65915588e-07,9.55180204e-07,1.67153977e-06,2.62152642e-06,4.1322772e-06,6.8644738e-06
3.5,3.64398331e-07,9.44942943e-07,1.64396041e-06,2.56234621e-06,4.00471272e-06,6.56279697e-06
3.55,3.62929311e-07,9.35067222e-07,1.61754647e-06,2.50621056e-06,3.8854611e-06,6.28717357e-06
3.6,3.6150639e-07,9.25534431e-07,1.59222599e-06,2.45289166e-06,3.7737435e-06,6.0344799e-06
3.65,3.60127554e-07,9.16327212e-07,1.56793281e-06,2.40218377e-06,3.66887438e-06,5.80205103e-06
3.7,3.58790902e-07,9.07429356e-07,1.54460599e-06,2.35390066e-06,3.57024819e-06,5.58760455e-06
3.75,3.57494639e-07,8.98825709e-07,1.5221893e-06,2.30787332e-06,3.47732809e-06,5.38917771e-06
3.8,3.5623707e-07,8.90502089e-07,1.50063077e-06,2.26394805e-06,3.3896366e-06,5.20507563e-06
3.85,3.55016592e-07,8.82445209e-07,1.47988234e-06,2.22198474e-06,3.30674767e-06,5.03382873e-06
3.9,3.53831687e-07,8.74642605e-07,1.45989942e-06,2.18185544e-06,3.22828002e-06,4.87415759e-06
3.95,3.52680918e-07,8.67082579e-07,1.44064066e-06,2.14344304e-06,3.15389141e-06,4.72494398e-06
4.0,3.51562926e-07,8.59754136e-07,1.42206763e-06,2.10664018e-06,3.08327383e-06,4.58520681e-06
4.05,3.50476417e-07,8.52646933e-07,1.40414455e-06,2.07134824e-06,3.01614937e-06,4.4540822e-06
4.1,3.49420168e-07,8.45751234e-07,1.38683809e-06,2.03747646e-06,2.9522666e-06,4.33080671e-06
4.15,3.48393014e-07,8.39057864e-07,1.37011717e-06,2.00494121e-06,2.89139756e-06,4.21470347e-06
4.2,3.4739385e-07,8.32558171e-07,1.35395273e-06,1.97366526e-06,2.83333505e-06,4.10517039e-06
4.25,3.46421626e-07,8.26243987e-07,1.33831764e-06,1.94357724e-06,2.77789038e-06,4.00167025e-06
4.3,3.45475342e-07,8.20107596e-07,1.32318647e-06,1.91461102e-06,2.72489131e-06,3.90372227e-06
4.35,3.44554045e-07,8.14141703e-07,1.30853541e-06,1.8867053e-06,2.67418035e-06,3.81089502e-06
4.4,3.43656829e-07,8.08339407e-07,1.29434212e-06,1.85980317e-06,2.62561318e-06,3.72280025e-06
4.45,3.4278283e-07,8.02694172e-07,1.28058563e-06,1.8338517e-06,2.57905732e-06,3.63908771e-06
4.5,3.41931225e-07,7.97199808e-07,1.26724621e-06,1.8088016e-06,2.53439097e-06,3.55944064e-06
4.55,3.41101227e-07,7.91850442e-07,1.25430533e-06,1.78460694e-06,2.49150191e-06,3.48357189e-06
4.6,3.40292087e-07,7.86640503e-07,1.24174553e-06,1.76122487e-06,2.45028663e-06,3.41122056e-06
4.65,3.39503087e-07,7.81564702e-07,1.22955034e-06,1.73861532e-06,2.41064947e-06,3.34214907e-06
4.7,3.38733544e-07,7.76618012e-07,1.21770425e-06,1.71674083e-06,2.37250191e-06,3.27614069e-06
4.75,3.37982802e-07,7.71795656e-07,1.20619261e-06,1.69556631e-06,2.33576191e-06,3.21299724e-06
4.8,3.37250236e-07,7.67093088e-07,1.19500156e-06,1.67505889e-06,2.30035333e-06,3.15253721e-06
4.85,3.36535247e-07,7.6250598e-07,1.18411803e-06,1.65518771e-06,2.26620542e-06,3.09459403e-06
4.9,3.35837261e-07,7.58030212e-07,1.17352963e-06,1.63592379e-06,2.23325234e-06,3.03901456e-06
4.95,3.35155729e-07,7.53661855e-07,1.16322464e-06,1.61723987e-06,2.20143276e-06,2.98565782e-06
5.0,3.34490125e-07,7.49397165e-07,1.15319193e-06,1.59911033e-06,2.17068944e-06,2.93439376e-06
5.05,3.33839944e-07,7.45232567e-07,1.14342098e-06,1.58151102e-06,2.14096898e-06,2.88510223e-06
5.1,3.33204702e-07,7.41164652e-07,1.13390179e-06,1.56441918e-06,2.1122214e-06,2.83767211e-06
5.15,3.32583935e-07,7.3719016e-07,1.12462485e-06,1.54781332e-06,2.08439996e-06,2.79200042e-06
5.2,3.31977198e-07,7.33305979e-07,1.11558116e-06,1.53167319e-06,2.05746084e-06,2.74799162e-06
5.25,3.31384062e-07,7.29509131e-07,1.10676212e-06,1.51597961e-06,2.03136298e-06,2.70555696e-06
5.3,3.30804117e-07,7.25796771e-07,1.09815959e-06,1.50071447e-06,2.00606779e-06,2.66461388e-06
5.35,3.30236968e-07,7.22166172e-07,1.08976579e-06,1.48586062e-06,1.98153903e-06,2.62508547e-06
5.4,3.29682234e-07,7.18614725e-07,1.08157332e-06,1.47140182e-06,1.95774261e-06,2.58690003e-06
5.45,3.29139551e-07,7.15139931e-07,1.07357514e-06,1.45732268e-06,1.93464644e-06,2.5499906e-06
5.5,3.28608568e-07,7.11739395e-07,1.06576451e-06,1.4436086e-06,1.91222028e-06,2.51429462e-06
5.55,3.28088946e-07,7.08410821e-07,1.05813503e-06,1.43024572e-06,1.89043562e-06,2.47975352e-06
5.6,3.2758036e-07,7.05152005e-07,1.05068055e-06,1.4172209e-06,1.86926553e-06,2.44631246e-06
5.65,3.27082497e-07,7.01960833e-07,1.04339525e-06,1.40452161e-06,1.8486846e-06,2.41392003e-06
5.7,3.26595055e-07,6.98835276e-07,1.03627351e-06,1.39213598e-06,1.82866879e-06,2.38252796e-06
5.75,3.26117743e-07,6.95773384e-07,1.02931e-06,1.38005269e-06,1.80919538e-06,2.3520909e-06
5.8,3.25650279e-07,6.92773285e-07,1.02249961e-06,1.36826096e-06,1.79024283e-06,2.32256623e-06
5.85,3.25192395e-07,6.89833179e-07,1.01583743e-06,1.35675054e-06,1.77179076e-06,2.29391382e-06
5.9,3.24743828e-07,6.86951335e-07,1.00931878e-06,1.34551165e-06,1.75381984e-06,2.26609586e-06
5.95,3.24304328e-07,6.84126087e-07,1.00293916e-06,1.33453495e-06,1.73631172e-06,2.23907672e-06
6.0,3.23873651e-07,6.81355833e-07,9.96694288e-07,1.32381155e-06,1.719249e-06,2.21282278e-06
6.05,3.23451562e-07,6.7863903e-07,9.90580021e-07,1.31333294e-06,1.70261513e-06,2.18730229e-06
6.1,3.23037835e-07,6.75974194e-07,9.84592403e-07,1.30309102e-06,1.6863944e-06,2.16248522e-06
6.15,3.22632251e-07,6.73359893e-07,9.78727635e-07,1.293078e-06,1.67057184e-06,2.13834322e-06
6.2,3.22234599e-07,6.70794748e-07,9.72982069e-07,1.28328649e-06,1.65513324e-06,2.1148494e-06
6.25,3.21844674e-07,6.68277429e-07,9.673522e-07,1.27370937e-06,1.64006502e-06,2.09197834e-06
6.3,3.21462279e-07,6.65806654e-07,9.61834661e-07,1.26433985e-06,1.62535429e-06,2.06970591e-06
6.35,3.21087222e-07,6.63381187e-07,9.56426215e-07,1.25517142e-06,1.61098872e-06,2.04800925e-06
6.4,3.20719318e-07,6.60999834e-07,9.51123748e-07,1.24619785e-06,1.59695657e-06,2.02686664e-06
6.45,3.20358389e-07,6.58661442e-07,9.45924266e-07,1.23741316e-06,1.58324663e-06,2.00625748e-06
6.5,3.20004261e-07,6.563649e-07,9.40824884e-07,1.22881161e-06,1.56984819e-06,1.98616217e-06
6.55,3.19656766e-07,6.54109133e-07,9.35822828e-07,1.2203877e-06,1.55675102e-06,1.96656207e-06
6.6,3.19315743e-07,6.51893102e-07,9.30915423e-07,1.21213615e-06,1.54394535e-06,1.94743947e-06
