vds,vb1,vb2,vb3,vb4,vb5,vb6
0.0,6.18234943e-05,0.000189349896,0.000296074038,0.000379968715,0.000442954037,0.000487631721
0.05,5.32725894e-05,0.000180396551,0.000287549137,0.000372088636,0.000435808713,0.000481241976
0.1,4.47803368e-05,0.000171489503,0.000279066858,0.000364245476,0.000428694192,0.000474877315
0.15,3.6365045e-05,0.000162628532,0.000270626932,0.000356439015,0.000421610304,0.000468537611
0.2,2.80735508e-05,0.000153813447,0.000262229093,0.000348669032,0.000414556883,0.00046222274
0.25,2.00364669e-05,0.000145044097,0.000253873077,0.000340935309,0.000407533759,0.000455932579
0.3,1.26251544e-05,0.00013632039,0.000245558623,0.00033323763,0.000400540768,0.000449667003
0.35,6.6876911e-06,0.000127642313,0.000237285472,0.000325575779,0.000393577742,0.00044342589
0.4,3.08996859e-06,0.000119009979,0.000229053369,0.000317949543,0.000386644519,0.000437209119
0.45,1.4643259e-06,0.000110423684,0.000220862059,0.000310358707,0.000379740935,0.000431016568
0.5,8.03981422e-07,0.00010188402,0.000212711294,0.000302803061,0.000372866826,0.000424848117
0.55,5.17777164e-07,9.33920508e-05,0.000204600828,0.000295282393,0.000366022032,0.000418703646
0.6,3.77945596e-07,8.49496334e-05,0.000196530418,0.000287796494,0.000359206391,0.000412583035
0.65,3.01298746e-07,7.65599924e-05,0.000188499827,0.000280345155,0.000352419743,0.000406486167
0.7,2.55073575e-07,6.82288059e-05,0.000180508824,0.000272928167,0.000345661929,0.000400412922
0.75,2.24986076e-07,5.99663097e-05,0.000172557185,0.000265545324,0.000338932791,0.000394363183
0.8,2.04181599e-07,5.17915001e-05,0.000164644694,0.000258196417,0.000332232171,0.000388336834
0.85,1.89085816e-07,4.37406354e-05,0.00015677115,0.000250881241,0.000325559911,0.000382333759
0.9,1.77699368e-07,3.58840993e-05,0.000148936368,0.000243599589,0.000318915854,0.000376353841
0.95,1.6883578e-07,2.8356758e-05,0.000141140187,0.000236351254,0.000312299846,0.000370396965
1.0,1.61754899e-07,2.13982735e-05,0.000133382483,0.000229136029,0.00030571173,0.000364463017
1.05,1.55974957e-07,1.53605908e-05,0.000125663184,0.000221953705,0.000299151351,0.000358551882
1.1,1.51170751e-07,1.05900735e-05,0.000117982304,0.000214804073,0.000292618554,0.000352663447
1.15,1.47115757e-07,7.19825675e-06,0.000110339983,0.000207686922,0.000286113184,0.000346797599
1.2,1.43647826e-07,4.97934622e-06,0.000102736575,0.000200602037,0.000279635087,0.000340954224
1.25,1.40648087e-07,3.58305089e-06,9.51727768e-05,0.000193549201,0.000273184108,0.000335133211
1.3,1.38027552e-07,2.70256328e-06,8.76498741e-05,0.000186528191,0.000266760091,0.000329334446
1.35,1.3571835e-07,2.13228772e-06,8.0170164e-05,0.00017953878,0.000260362882,0.000323557819
1.4,1.3366786e-07,1.74906246e-06,7.27377324e-05,0.000172580733,0.000253992323,0.000317803218
1.45,1.31834676e-07,1.48145775e-06,6.53598849e-05,0.000165653805,0.000247648258,0.000312070531
1.5,1.30185782e-07,1.28775433e-06,5.80497951e-05,0.000158757741,0.000241330527,0.000306359647
1.55,1.28694536e-07,1.14297577e-06,5.08313556e-05,0.000151892271,0.000235038971,0.000300670456
1.6,1.27339207e-07,1.03169313e-06,4.37476842e-05,0.00014505711,0.000228773426,0.000295002847
1.65,1.26101892e-07,9.44059628e-07,3.68745525e-05,0.000138251952,0.000222533728,0.000289356707
1.7,1.24967712e-07,8.73590745e-07,3.03368674e-05,0.000131476468,0.000216319707,0.000283731927
1.75,1.23924197e-07,8.15889883e-07,2.43166738e-05,0.000124730306,0.00021013119,0.000278128395
1.8,1.22960819e-07,7.67895761e-07,1.90282935e-05,0.000118013089,0.000203967998,0.000272546
1.85,1.22068625e-07,7.27424964e-07,1.46458263e-05,0.000111324423,0.000197829945,0.000266984628
1.9,1.21239955e-07,6.9288606e-07,1.122161e-05,0.000104663917,0.000191716839,0.000261444167
1.95,1.20468215e-07,6.63096218e-07,8.66809219e-06,9.80312195e-05,0.000185628476,0.000255924503
2.0,1.19747699e-07,6.37160683e-07,6.81465814e-06,9.14261145e-05,0.000179564639,0.000250425522
2.05,1.1907344e-07,6.14391764e-07,5.47972881e-06,8.48486928e-05,0.000173525098,0.000244947107
2.1,1.184411e-07,5.94253254e-07,4.51195342e-06,7.82996981e-05,0.000167509604,0.000239489141
2.15,1.17846866e-07,5.76321562e-07,3.79974616e-06,7.17811854e-05,0.000161517883,0.000234051504
2.2,1.17287379e-07,5.60258059e-07,3.26556834e-06,6.52977579e-05,0.000155549636,0.000228634074
2.25,1.16759664e-07,5.45789083e-07,2.85677476e-06,5.88588271e-05,0.000149604527,0.000223236726
2.3,1.16261078e-07,5.32691271e-07,2.53772373e-06,5.24825691e-05,0.000143682176,0.000217859331
2.35,1.15789267e-07,5.20780638e-07,2.28408593e-06,4.62023359e-05,0.000137782153,0.000212501757
2.4,1.15342121e-07,5.09904364e-07,2.07902129e-06,4.00756578e-05,0.00013190396,0.000207163867
2.45,1.14917751e-07,4.99934528e-07,1.91067971e-06,3.41935318e-05,0.000126047018,0.000201845518
2.5,1.14514454e-07,4.90763282e-07,1.77057686e-06,2.8682824e-05,0.000120210652,0.000196546558
2.55,1.14130696e-07,4.82299093e-07,1.65253299e-06,2.36907637e-05,0.000114394066,0.000191266829
2.6,1.13765087e-07,4.74463801e-07,1.55197205e-06,1.934725e-05,0.000108596324,0.000186006163
2.65,1.13416368e-07,4.67190275e-07,1.46545229e-06,1.57212333e-05,0.00010281633,0.000180764378
2.7,1.13083392e-07,4.60420549e-07,1.39034708e-06,1.28004373e-05,9.70528158e-05,0.000175541277
2.75,1.12765117e-07,4.54104323e-07,1.32462449e-06,1.05064944e-05,9.13043528e-05,0.000170336648
2.8,1.12460589e-07,4.48197738e-07,1.26669285e-06,8.72915743e-06,8.55694131e-05,0.000165150255
2.85,1.12168936e-07,4.42662387e-07,1.21529072e-06,7.35667817e-06,7.98465354e-05,0.000159981837
2.9,1.11889358e-07,4.37464495e-07,1.16940765e-06,6.29242909e-06,7.413469e-05,0.000154831101
2.95,1.11621122e-07,4.32574247e-07,1.12822611e-06,5.45980551e-06,6.84340138e-05,0.000149697716
3.0,1.11363549e-07,4.27965226e-07,1.09107858e-06,4.80085475e-06,6.27471956e-05,0.000144581303
3.05,1.11116019e-07,4.23613943e-07,1.05741532e-06,4.27272504e-06,5.70819183e-05,0.000139481427
3.1,1.10877955e-07,4.19499445e-07,1.02678001e-06,3.84399069e-06,5.14548378e-05,0.000134397579
3.15,1.10648826e-07,4.15602983e-07,9.987911e-07,3.49159174e-06,4.58973231e-05,0.000129329167
3.2,1.10428138e-07,4.1190773e-07,9.73127306e-07,3.19850825e-06,4.0462175e-05,0.000124275489
3.25,1.10215434e-07,4.08398542e-07,9.49516409e-07,2.95206742e-06,3.52283876e-05,0.000119235713
3.3,1.1001029e-07,4.05061755e-07,9.27726352e-07,2.74273523e-06,3.02985514e-05,0.000114208849
3.35,1.09812311e-07,4.01885006e-07,9.07558217e-07,2.56325965e-06,2.57838928e-05,0.000109193709
3.4,1.09621128e-07,3.98857085e-07,8.88840592e-07,2.40806253e-06,2.17786353e-05,0.000104188871
3.45,1.094364e-07,3.959678e-07,8.71425042e-07,2.27280595e-06,1.8335176e-05,9.91926377e-05
3.5,1.09257805e-07,3.93207871e-07,8.5518243e-07,2.15408052e-06,1.54537755e-05,9.42029926e-05
3.55,1.09085044e-07,3.90568823e-07,8.39999923e-07,2.04917941e-06,1.30905655e-05,8.92175762e-05
3.6,1.08917838e-07,3.88042905e-07,8.25778522e-07,1.95593281e-06,1.11759581e-05,8.42336939e-05
3.65,1.08755922e-07,3.85623016e-07,8.12431034e-07,1.87258558e-06,9.63280784e-06,7.92484034e-05
3.7,1.08599052e-07,3.83302632e-07,7.99880378e-07,1.79770585e-06,8.38855616e-06,7.42587551e-05
3.75,1.08446996e-07,3.81075756e-07,7.88058177e-07,1.73011607e-06,7.38095271e-06,6.92623121e-05
3.8,1.08299537e-07,3.78936861e-07,7.76903576e-07,1.66884054e-06,6.55937999e-06,6.42581502e-05
3.85,1.08156471e-07,3.76880847e-07,7.66362246e-07,1.61306509e-06,5.88392011e-06,5.92486165e-05
3.9,1.08017605e-07,3.74903e-07,7.56385535e-07,1.56210579e-06,5.3235948e-06,5.42421563e-05
3.95,1.07882758e-07,3.72998957e-07,7.46929759e-07,1.51538455e-06,4.85452491e-06,4.92573691e-05
4.0,1.07751758e-07,3.71164673e-07,7.37955584e-07,1.47240988e-06,4.45831763e-06,4.43278954e-05
4.05,1.07624446e-07,3.69396392e-07,7.29427504e-07,1.43276158e-06,4.12076307e-06,3.95066041e-05
4.1,1.07500667e-07,3.67690624e-07,7.2131339e-07,1.39607857e-06,3.83082384e-06,3.48661547e-05
4.15,1.07380279e-07,3.66044119e-07,7.13584099e-07,1.36204903e-06,3.57986852e-06,3.04926521e-05
4.2,1.07263143e-07,3.64453851e-07,7.06213141e-07,1.33040242e-06,3.36109614e-06,2.64715405e-05
4.25,1.07149132e-07,3.62916992e-07,6.99176384e-07,1.30090305e-06,3.16910555e-06,2.28698634e-05
4.3,1.07038123e-07,3.61430905e-07,6.92451798e-07,1.27334466e-06,2.99957299e-06,1.97226415e-05
4.35,1.06929999e-07,3.5999312e-07,6.86019236e-07,1.24754612e-06,2.84900976e-06,1.70292857e-05
4.4,1.0682465e-07,3.58601327e-07,6.79860234e-07,1.22334772e-06,2.71457925e-06,1.47599231e-05
4.45,1.06721973e-07,3.57253358e-07,6.73957842e-07,1.20060818e-06,2.59395794e-06,1.28667463e-05
4.5,1.06621866e-07,3.55947183e-07,6.68296475e-07,1.17920208e-06,2.48522898e-06,1.12950899e-05
4.55,1.06524236e-07,3.54680892e-07,6.62861776e-07,1.15901776e-06,2.38680027e-06,9.99136073e-06
4.6,1.06428992e-07,3.53452691e-07,6.57640498e-07,1.13995548e-06,2.29734089e-06,8.90741671e-06
4.65,1.06336049e-07,3.52260892e-07,6.52620402e-07,1.12192589e-06,2.21573139e-06,8.00224745e-06
4.7,1.06245326e-07,3.51103904e-07,6.47790162e-07,1.10484876e-06,2.14102473e-06,7.24203047e-06
4.75,1.06156743e-07,3.49980229e-07,6.43139282e-07,1.08865184e-06,2.07241529e-06,6.59939885e-06
4.8,1.06070228e-07,3.48888453e-07,6.38658019e-07,1.07326989e-06,2.00921414e-06,6.0524362e-06
4.85,1.05985709e-07,3.4782724e-07,6.34337323e-07,1.05864389e-06,1.95082926e-06,5.58366897e-06
4.9,1.05903119e-07,3.46795329e-07,6.30168771e-07,1.0447203e-06,1.89674946e-06,5.17917295e-06
4.95,1.05822392e-07,3.45791526e-07,6.26144517e-07,1.03145047e-06,1.84653144e-06,4.82782908e-06
5.0,1.05743468e-07,3.44814702e-07,6.22257244e-07,1.01879008e-06,1.7997891e-06,4.52072455e-06
5.05,1.05666287e-07,3.43863788e-07,6.18500117e-07,1.00669867e-06,1.75618482e-06,4.25068009e-06
5.1,1.05590792e-07,3.42937769e-07,6.14866747e-07,9.95139253e-07,1.71542226e-06,4.01188065e-06
5.15,1.0551693e-07,3.42035684e-07,6.11351156e-07,9.84077944e-07,1.67724038e-06,3.79958831e-06
5.2,1.05444648e-07,3.4115662e-07,6.07947742e-07,9.73483642e-07,1.64140839e-06,3.60991934e-06
5.25,1.05373898e-07,3.40299709e-07,6.04651252e-07,9.63327755e-07,1.60772164e-06,3.4396708e-06
5.3,1.05304631e-07,3.39464128e-07,6.01456754e-07,9.53583956e-07,1.57599805e-06,3.2861853e-06
5.35,1.05236801e-07,3.38649093e-07,5.98359614e-07,9.44227963e-07,1.54607516e-06,3.14724514e-06
5.4,1.05170366e-07,3.37853859e-07,5.95355474e-07,9.35237345e-07,1.51780757e-06,3.020989e-06
5.45,1.05105282e-07,3.37077714e-07,5.92440231e-07,9.26591354e-07,1.49106485e-06,2.90584607e-06
5.5,1.0504151e-07,3.36319984e-07,5.89610019e-07,9.1827077e-07,1.46572964e-06,2.80048376e-06
5.55,1.04979011e-07,3.35580021e-07,5.86861192e-07,9.10257761e-07,1.44169611e-06,2.70376577e-06
5.6,1.04917747e-07,3.34857212e-07,5.8419031e-07,9.02535765e-07,1.4188686e-06,2.61471857e-06
5.65,1.04857683e-07,3.34150969e-07,5.81594121e-07,8.95089378e-07,1.39716042e-06,2.53250415e-06
5.7,1.04798784e-07,3.33460732e-07,5.79069554e-07,8.87904255e-07,1.37649287e-06,2.45639804e-06
5.75,1.04741018e-07,3.32785964e-07,5.76613702e-07,8.80967024e-07,1.35679433e-06,2.38577123e-06
5.8,1.04684351e-07,3.32126154e-07,5.74223814e-07,8.74265199e-07,1.33799951e-06,2.32007544e-06
5.85,1.04628754e-07,3.31480811e-07,5.71897281e-07,8.67787117e-07,1.32004875e-06,2.25883091e-06
5.9,1.04574196e-07,3.30849469e-07,5.69631632e-07,8.61521865e-07,1.30288747e-06,2.20161631e-06
5.95,1.0452065e-07,3.30231677e-07,5.67424521e-07,8.55459223e-07,1.28646562e-06,2.14806031e-06
6.0,1.04468088e-07,3.29627006e-07,5.65273722e-07,8.49589613e-07,1.27073723e-06,2.0978346e-06
6.05,1.04416483e-07,3.29035046e-07,5.63177119e-07,8.43904045e-07,1.25566002e-06,2.05064794e-06
6.1,1.0436581e-07,3.284554e-07,5.61132702e-07,8.38394076e-07,1.24119502e-06,2.0062412e-06
6.15,1.04316044e-07,3.2788769e-07,5.59138557e-07,8.3305177e-07,1.22730627e-06,1.96438319e-06
6.2,1.04267162e-07,3.27331555e-07,5.57192864e-07,8.27869657e-07,1.21396055e-06,1.92486701e-06
6.25,1.04219139e-07,3.26786644e-07,5.55293889e-07,8.22840703e-07,1.2011271e-06,1.88750705e-06
6.3,1.04171955e-07,3.26252623e-07,5.53439979e-07,8.17958278e-07,1.18877743e-06,1.85213637e-06
6.35,1.04125588e-07,3.25729172e-07,5.51629559e-07,8.13216126e-07,1.17688507e-06,1.81860444e-06
6.4,1.04080017e-07,3.2521598e-07,5.49861126e-07,8.08608341e-07,1.16542546e-06,1.78677522e-06
6.45,1.04035221e-07,3.2471275e-07,5.48133245e-07,8.04129343e-07,1.15437571e-06,1.75652548e-06
6.5,1.03991183e-07,3.24219198e-07,5.46444545e-07,7.99773854e-07,1.14371454e-06,1.72774337e-06
6.55,1.03947882e-07,3.23735048e-07,5.44793719e-07,7.95536881e-07,1.13342208e-06,1.70032715e-06
6.6,1.03905301e-07,3.23260035e-07,5.43179513e-07,7.91413692e-07,1.12347977e-06,1.67418409e-06
