vds,vb1,vb2,vb3,vb4,vb5,vb6
0.0,6.93938424e-06,2.6803681e-05,4.36453134e-05,5.71727346e-05,6.70114462e-05,7.42639948e-05
0.05,5.64263687e-06,2.54223156e-05,4.23229421e-05,5.59431294e-05,6.58945946e-05,7.32632162e-05
0.1,4.35912018e-06,2.40478021e-05,4.10072001e-05,5.47194297e-05,6.47827253e-05,7.22665269e-05
0.15,3.10286323e-06,2.26801164e-05,3.96980455e-05,5.35015996e-05,6.36758101e-05,7.12739057e-05
0.2,1.92095528e-06,2.13192412e-05,3.8395437e-05,5.22896032e-05,6.25738212e-05,7.02853317e-05
0.25,9.51943265e-07,1.99651697e-05,3.70993335e-05,5.10834049e-05,6.14767307e-05,6.9300784e-05
0.3,3.84030807e-07,1.861791e-05,3.58096941e-05,4.98829693e-05,6.03845109e-05,6.83202419e-05
0.35,1.59323566e-07,1.72774935e-05,3.45264784e-05,4.86882611e-05,5.92971344e-05,6.73436849e-05
0.4,8.09753222e-08,1.59439882e-05,3.32496463e-05,4.74992453e-05,5.82145739e-05,6.63710923e-05
0.45,5.05278136e-08,1.46175219e-05,3.19791579e-05,4.63158869e-05,5.71368021e-05,6.54024439e-05
0.5,3.66352511e-08,1.32983229e-05,3.07149738e-05,4.51381511e-05,5.6063792e-05,6.44377194e-05
0.55,2.9341186e-08,1.19867954e-05,2.9457055e-05,4.39660032e-05,5.49955166e-05,6.34768985e-05
0.6,2.50644928e-08,1.06836634e-05,2.8205363e-05,4.27994086e-05,5.39319491e-05,6.25199612e-05
0.65,2.23339249e-08,9.39025525e-06,2.69598595e-05,4.16383328e-05,5.28730629e-05,6.15668875e-05
0.7,2.04714344e-08,8.10908853e-06,2.57205074e-05,4.04827411e-05,5.18188312e-05,6.06176576e-05
0.75,1.91334516e-08,6.84509601e-06,2.44872702e-05,3.9332599e-05,5.07692277e-05,5.96722516e-05
0.8,1.81318065e-08,5.60818306e-06,2.32601128e-05,3.81878719e-05,4.9724226e-05,5.87306499e-05
0.85,1.7356606e-08,4.41818497e-06,2.20390021e-05,3.7048525e-05,4.86837996e-05,5.77928329e-05
0.9,1.6740144e-08,3.31235839e-06,2.08239083e-05,3.59145232e-05,4.76479223e-05,5.68587809e-05
0.95,1.62387845e-08,2.34904592e-06,1.96148063e-05,3.47858312e-05,4.6616568e-05,5.59284747e-05
1.0,1.58233069e-08,1.5897004e-06,1.84116793e-05,3.36624133e-05,4.55897103e-05,5.50018949e-05
1.05,1.5473491e-08,1.0567648e-06,1.72145242e-05,3.25442333e-05,4.4567323e-05,5.40790221e-05
1.1,1.5174942e-08,7.15666981e-07,1.6023361e-05,3.14312539e-05,4.354938e-05,5.31598371e-05
1.15,1.49171559e-08,5.06234677e-07,1.48382506e-05,3.03234374e-05,4.2535855e-05,5.22443207e-05
1.2,1.46922996e-08,3.77071156e-07,1.3659326e-05,2.92207444e-05,4.15267214e-05,5.13324539e-05
1.25,1.44944197e-08,2.94910983e-07,1.24868511e-05,2.81231344e-05,4.05219529e-05,5.04242176e-05
1.3,1.43189134e-08,2.40470969e-07,1.13213314e-05,2.70305645e-05,3.95215227e-05,4.95195928e-05
1.35,1.41621682e-08,2.02868324e-07,1.0163726e-05,2.59429897e-05,3.85254038e-05,4.86185604e-05
1.4,1.40213102e-08,1.75882045e-07,9.01585522e-06,2.48603618e-05,3.7533569e-05,4.77211015e-05
1.45,1.38940248e-08,1.55849526e-07,7.88117703e-06,2.37826288e-05,3.65459906e-05,4.68271971e-05
1.5,1.37784274e-08,1.40537614e-07,6.76620495e-06,2.27097338e-05,3.55626404e-05,4.59368283e-05
1.55,1.36729678e-08,1.28535772e-07,5.68284778e-06,2.1641614e-05,3.45834896e-05,4.50499759e-05
1.6,1.35763595e-08,1.18922804e-07,4.65143388e-06,2.05781994e-05,3.36085086e-05,4.4166621e-05
1.65,1.34875256e-08,1.11078364e-07,3.70239269e-06,1.95194109e-05,3.26376668e-05,4.32867444e-05
1.7,1.34055579e-08,1.04572962e-07,2.87200292e-06,1.84651594e-05,3.16709324e-05,4.24103269e-05
1.75,1.33296851e-08,9.91017357e-08,2.18934951e-06,1.74153438e-05,3.07082724e-05,4.15373492e-05
1.8,1.32592477e-08,9.44433949e-08,1.66196596e-06,1.63698514e-05,2.97496517e-05,4.06677918e-05
1.85,1.31936786e-08,9.04340546e-08,1.27358302e-06,1.53285604e-05,2.87950332e-05,3.98016351e-05
1.9,1.31324872e-08,8.69501357e-08,9.94951865e-07,1.4291348e-05,2.78443769e-05,3.89388591e-05
1.95,1.30752473e-08,8.38969248e-08,7.96206541e-07,1.32581117e-05,2.68976398e-05,3.80794436e-05
2.0,1.30215863e-08,8.12007593e-08,6.53210782e-07,1.22288157e-05,2.59547746e-05,3.72233682e-05
2.05,1.29711775e-08,7.88035806e-08,5.48582888e-07,1.1203588e-05,2.50157289e-05,3.63706118e-05
2.1,1.29237327e-08,7.6659073e-08,4.7045426e-07,1.01829143e-05,2.40804441e-05,3.55211529e-05
2.15,1.28789971e-08,7.47298787e-08,4.1086975e-07,9.16801151e-06,2.31488539e-05,3.46749695e-05
2.2,1.28367446e-08,7.298556e-08,3.64494246e-07,8.16150967e-06,2.22208821e-05,3.38320388e-05
2.25,1.27967734e-08,7.14010877e-08,3.2771131e-07,7.16859594e-06,2.12964405e-05,3.29923372e-05
2.3,1.27589033e-08,6.99557039e-08,2.98030814e-07,6.19866528e-06,2.0375426e-05,3.21558398e-05
2.35,1.27229726e-08,6.86320578e-08,2.73707479e-07,5.26705177e-06,1.94577164e-05,3.13225209e-05
2.4,1.26888359e-08,6.74155413e-08,2.53495615e-07,4.39545869e-06,1.85431664e-05,3.04923528e-05
2.45,1.2656362e-08,6.62937723e-08,2.36490147e-07,3.60899623e-06,1.76316023e-05,2.96653064e-05
2.5,1.26254322e-08,6.52561901e-08,2.2202223e-07,2.92921145e-06,1.67228154e-05,2.88413504e-05
2.55,1.2595939e-08,6.4293735e-08,2.09589665e-07,2.36650607e-06,1.5816556e-05,2.80204507e-05
2.6,1.25677846e-08,6.33985924e-08,1.98809743e-07,1.91729515e-06,1.49125275e-05,2.72025703e-05
2.65,1.25408799e-08,6.25639883e-08,1.89386788e-07,1.56739872e-06,1.40103851e-05,2.63876684e-05
2.7,1.25151437e-08,6.17840221e-08,1.81089444e-07,1.29815934e-06,1.3109743e-05,2.55756996e-05
2.75,1.24905016e-08,6.10535312e-08,1.7373455e-07,1.09136049e-06,1.22102017e-05,2.47666128e-05
2.8,1.24668853e-08,6.03679802e-08,1.67175524e-07,9.31648142e-07,1.13114181e-05,2.39603505e-05
2.85,1.24442324e-08,5.97233685e-08,1.6129388e-07,8.07068681e-07,1.04132523e-05,2.31568464e-05
2.9,1.24224851e-08,5.91161545e-08,1.55992948e-07,7.08695238e-07,9.51605547e-06,2.23560245e-05
2.95,1.24015904e-08,5.85431916e-08,1.51193185e-07,6.29987596e-07,8.62118421e-06,2.1557796e-05
3.0,1.23814994e-08,5.80016752e-08,1.46828611e-07,5.6618085e-07,7.73183381e-06,2.07620566e-05
3.05,1.23621666e-08,5.74890974e-08,1.42844097e-07,5.13794951e-07,6.85419613e-06,1.99686833e-05
3.1,1.23435501e-08,5.7003209e-08,1.39193257e-07,4.70270055e-07,5.99867812e-06,1.91775291e-05
3.15,1.23256111e-08,5.65419874e-08,1.35836815e-07,4.33704839e-07,5.18043247e-06,1.83884181e-05
3.2,1.23083134e-08,5.61036083e-08,1.32741312e-07,4.02671502e-07,4.4180918e-06,1.76011385e-05
3.25,1.22916233e-08,5.56864226e-08,1.29878083e-07,3.7608547e-07,3.73013029e-06,1.68154342e-05
3.3,1.22755096e-08,5.52889356e-08,1.27222447e-07,3.53113385e-07,3.12999936e-06,1.60309958e-05
3.35,1.22599431e-08,5.49097895e-08,1.2475304e-07,3.33107713e-07,2.62265455e-06,1.52474502e-05
3.4,1.22448966e-08,5.45477483e-08,1.2245129e-07,3.15559867e-07,2.204352e-06,1.446435e-05
3.45,1.22303446e-08,5.42016842e-08,1.20300978e-07,3.0006629e-07,1.86522614e-06,1.36811666e-05
3.5,1.22162632e-08,5.3870566e-08,1.1828788e-07,2.86303649e-07,1.59269775e-06,1.28972903e-05
3.55,1.22026303e-08,5.35534495e-08,1.16399478e-07,2.74010519e-07,1.37414815e-06,1.21120489e-05
3.6,1.21894248e-08,5.3249468e-08,1.14624711e-07,2.62973714e-07,1.19839134e-06,1.13247612e-05
3.65,1.21766271e-08,5.29578247e-08,1.12953771e-07,2.53017981e-07,1.05618631e-06,1.05348562e-05
3.7,1.21642187e-08,5.26777858e-08,1.11377936e-07,2.43998161e-07,9.4020103e-07,9.7421029e-06
3.75,1.21521823e-08,5.24086747e-08,1.0988942e-07,2.35793171e-07,8.44743994e-07,8.94701103e-06
3.8,1.21405016e-08,5.2149866e-08,1.08481256e-07,2.28301336e-07,7.65442018e-07,8.15145736e-06
3.85,1.21291612e-08,5.19007811e-08,1.07147193e-07,2.21436748e-07,6.9894414e-07,7.35953262e-06
3.9,1.21181465e-08,5.1660884e-08,1.05881603e-07,2.15126391e-07,6.42677712e-07,6.57844159e-06
3.95,1.21074439e-08,5.14296772e-08,1.04679407e-07,2.09307867e-07,5.94658031e-07,5.8190253e-06
4.0,1.20970403e-08,5.12066984e-08,1.03536015e-07,2.03927572e-07,5.53343838e-07,5.09526874e-06
4.05,1.20869236e-08,5.09915176e-08,1.02447263e-07,1.98939237e-07,5.17529137e-07,4.42235233e-06
4.1,1.20770821e-08,5.07837339e-08,1.01409367e-07,1.94302731e-07,4.86262628e-07,3.81359432e-06
4.15,1.20675049e-08,5.05829738e-08,1.00418883e-07,1.89983102e-07,4.58787732e-07,3.27754096e-06
4.2,1.20581817e-08,5.03888881e-08,9.94726681e-08,1.85949782e-07,4.34497798e-07,2.81656421e-06
4.25,1.20491025e-08,5.02011506e-08,9.85678483e-08,1.82175929e-07,4.129025e-07,2.42739296e-06
4.3,1.2040258e-08,5.00194559e-08,9.77017916e-08,1.7863789e-07,3.93602465e-07,2.10291423e-06
4.35,1.20316394e-08,4.98435178e-08,9.68720826e-08,1.75314747e-07,3.76269986e-07,1.8342174e-06
4.4,1.20232381e-08,4.96730679e-08,9.60765011e-08,1.72187937e-07,3.60634257e-07,1.61218927e-06
4.45,1.20150462e-08,4.95078543e-08,9.53130026e-08,1.6924094e-07,3.46469982e-07,1.42846421e-06
4.5,1.2007056e-08,4.93476402e-08,9.45797017e-08,1.66459004e-07,3.33588527e-07,1.27583864e-06
4.55,1.19992602e-08,4.91922028e-08,9.38748569e-08,1.63828923e-07,3.21830999e-07,1.1483452e-06
4.6,1.1991652e-08,4.90413323e-08,9.31968572e-08,1.61338838e-07,3.11062783e-07,1.0411528e-06
4.65,1.19842248e-08,4.88948312e-08,9.25442099e-08,1.58978075e-07,3.01169216e-07,9.50399471e-07
4.7,1.19769722e-08,4.8752513e-08,9.19155307e-08,1.56737002e-07,2.92052121e-07,8.73016064e-07
4.75,1.19698882e-08,4.86142018e-08,9.13095333e-08,1.54606906e-07,2.83627031e-07,8.06566761e-07
4.8,1.19629672e-08,4.84797313e-08,9.07250215e-08,1.52579886e-07,2.75820937e-07,7.49115219e-07
4.85,1.19562036e-08,4.83489444e-08,9.01608812e-08,1.50648765e-07,2.68570455e-07,6.99116618e-07
4.9,1.19495921e-08,4.82216922e-08,8.96160735e-08,1.48807008e-07,2.6182033e-07,6.55332516e-07
4.95,1.19431279e-08,4.8097834e-08,8.90896288e-08,1.4704865e-07,2.55522203e-07,6.1676453e-07
5.0,1.19368061e-08,4.79772363e-08,8.85806407e-08,1.45368243e-07,2.49633592e-07,5.82602946e-07
5.05,1.19306221e-08,4.78597726e-08,8.80882613e-08,1.43760793e-07,2.44117043e-07,5.52186979e-07
5.1,1.19245715e-08,4.77453228e-08,8.76116965e-08,1.42221722e-07,2.38939424e-07,5.2497401e-07
5.15,1.19186502e-08,4.76337727e-08,8.71502018e-08,1.40746819e-07,2.34071332e-07,5.00515687e-07
5.2,1.1912854e-08,4.75250141e-08,8.67030783e-08,1.39332212e-07,2.29486592e-07,4.78439311e-07
5.25,1.19071792e-08,4.7418944e-08,8.62696698e-08,1.37974328e-07,2.25161833e-07,4.58433246e-07
5.3,1.1901622e-08,4.73154642e-08,8.58493589e-08,1.36669868e-07,2.21076134e-07,4.40235439e-07
5.35,1.18961789e-08,4.72144815e-08,8.54415648e-08,1.35415783e-07,2.17210709e-07,4.2362433e-07
5.4,1.18908464e-08,4.71159069e-08,8.50457404e-08,1.34209247e-07,2.13548655e-07,4.08411618e-07
5.45,1.18856213e-08,4.70196558e-08,8.46613698e-08,1.33047641e-07,2.10074718e-07,3.9443647e-07
5.5,1.18805003e-08,4.69256472e-08,8.42879663e-08,1.31928531e-07,2.06775106e-07,3.81560857e-07
5.55,1.18754806e-08,4.68338042e-08,8.39250702e-08,1.30849658e-07,2.03637315e-07,3.69665786e-07
5.6,1.18705591e-08,4.67440531e-08,8.35722472e-08,1.29808914e-07,2.00649991e-07,3.58648227e-07
5.65,1.18657331e-08,4.66563236e-08,8.32290863e-08,1.28804338e-07,1.97802796e-07,3.48418603e-07
5.7,1.18609998e-08,4.65705485e-08,8.28951986e-08,1.27834098e-07,1.95086304e-07,3.38898729e-07
5.75,1.18563567e-08,4.64866635e-08,8.25702159e-08,1.26896484e-07,1.92491901e-07,3.30020103e-07
5.8,1.18518013e-08,4.64046072e-08,8.22537889e-08,1.25989895e-07,1.90011701e-07,3.21722495e-07
5.85,1.18473311e-08,4.63243206e-08,8.19455865e-08,1.25112835e-07,1.87638472e-07,3.13952764e-07
5.9,1.18429438e-08,4.62457476e-08,8.16452942e-08,1.24263898e-07,1.85365572e-07,3.06663874e-07
5.95,1.18386372e-08,4.6168834e-08,8.13526134e-08,1.2344177e-07,1.83186889e-07,2.99814057e-07
6.0,1.18344091e-08,4.60935283e-08,8.10672605e-08,1.22645212e-07,1.81096789e-07,2.93366121e-07
6.05,1.18302574e-08,4.60197806e-08,8.07889654e-08,1.21873064e-07,1.79090074e-07,2.87286846e-07
6.1,1.18261801e-08,4.59475436e-08,8.05174713e-08,1.21124232e-07,1.77161937e-07,2.81546484e-07
6.15,1.18221753e-08,4.58767714e-08,8.02525337e-08,1.20397687e-07,1.75307932e-07,2.76118324e-07
6.2,1.18182411e-08,4.58074203e-08,7.99939196e-08,1.19692458e-07,1.73523934e-07,2.70978323e-07
6.25,1.18143757e-08,4.57394481e-08,7.97414068e-08,1.19007632e-07,1.71806117e-07,2.66104788e-07
6.3,1.18105774e-08,4.56728143e-08,7.94947836e-08,1.18342344e-07,1.70150924e-07,2.61478101e-07
6.35,1.18068444e-08,4.56074801e-08,7.92538478e-08,1.17695778e-07,1.68555047e-07,2.57080481e-07
6.4,1.18031751e-08,4.5543408e-08,7.90184062e-08,1.17067164e-07,1.67015402e-07,2.52895777e-07
6.45,1.17995679e-08,4.5480562e-08,7.87882745e-08,1.16455772e-07,1.65529114e-07,2.48909292e-07
6.5,1.17960213e-08,4.54189075e-08,7.85632765e-08,1.15860911e-07,1.640935e-07,2.45107622e-07
6.55,1.17925338e-08,4.53584112e-08,7.83432435e-08,1.15281926e-07,1.62706049e-07,2.41478521e-07
6.6,1.1789104e-08,4.5299041e-08,7.81280142e-08,1.14718197e-07,1.61364413e-07,2.38010783e-07
