vds,vb1,vb2,vb3,vb4,vb5,vb6
0.0,3.33285142e-05,0.00013427439,0.000219757076,0.000288235605,0.000340194106,0.000376726259
0.05,2.69630993e-05,0.000127577326,0.000213485488,0.00028252249,0.000335082551,0.00037221442
0.1,2.06528918e-05,0.000120896894,0.000207229671,0.000276823219,0.00032998258,0.000367711976
0.15,1.44769109e-05,0.000114233135,0.000200989576,0.00027113775,0.000324894162,0.000363218903
0.2,8.70381966e-06,0.000107586129,0.000194765157,0.00026546604,0.000319817261,0.000358735176
0.25,4.10024828e-06,0.000100956001,0.000188556367,0.000259808046,0.000314751846,0.000354260771
0.3,1.560365e-06,9.43429592e-05,0.000182363162,0.000254163726,0.000309697882,0.000349795662
0.35,6.16016166e-07,8.77473234e-05,0.000176185497,0.000248533037,0.000304655336,0.000345339827
0.4,2.99905044e-07,8.11695986e-05,0.000170023332,0.000242915935,0.000299624176,0.000340893239
0.45,1.81388048e-07,7.46105828e-05,0.000163876625,0.00023731238,0.000294604368,0.000336455874
0.5,1.29550914e-07,6.80715603e-05,0.000157745339,0.000231722327,0.000289595879,0.000332027709
0.55,1.03646154e-07,6.15546458e-05,0.00015162944,0.000226145734,0.000284598675,0.000327608719
0.6,8.92567988e-08,5.50634228e-05,0.000145528897,0.000220582559,0.000279612724,0.000323198878
0.65,8.05711966e-08,4.86041651e-05,0.000139443686,0.000215032758,0.000274637993,0.000318798164
0.7,7.49706388e-08,4.21882542e-05,0.000133373791,0.000209496289,0.000269674448,0.000314406552
0.75,7.11619011e-08,3.58370802e-05,0.000127319205,0.000203973109,0.000264722057,0.000310024017
0.8,6.84563922e-08,2.95920207e-05,0.000121279937,0.000198463174,0.000259780785,0.000305650536
0.85,6.64638553e-08,2.35339232e-05,0.000115256019,0.000192966441,0.000254850601,0.000301286084
0.9,6.49512356e-08,1.78156059e-05,0.000109247509,0.000187482867,0.000249931469,0.000296930637
0.95,6.37730444e-08,1.26933262e-05,0.000103254511,0.000182012406,0.000245023357,0.00029258417
1.0,6.2834939e-08,8.49194587e-06,9.72771941e-05,0.000176555016,0.000240126232,0.00028824666
1.05,6.20736965e-08,5.43118957e-06,9.13158217e-05,0.000171110651,0.000235240058,0.000283918083
1.1,6.14457141e-08,3.44691224e-06,8.53708057e-05,0.000165679267,0.000230364804,0.000279598413
1.15,6.0920151e-08,2.25507504e-06,7.94427869e-05,0.000160260818,0.000225500433,0.000275287627
1.2,6.04746997e-08,1.55599621e-06,7.35327686e-05,0.000154855258,0.000220646911,0.000270985701
1.25,6.00928994e-08,1.13960791e-06,6.76423407e-05,0.000149462541,0.000215804204,0.00026669261
1.3,5.97623851e-08,8.8269599e-07,6.17740615e-05,0.000144082622,0.000210972277,0.00026240833
1.35,5.94737173e-08,7.17412372e-07,5.5932119e-05,0.000138715453,0.000206151092,0.000258132836
1.4,5.92195843e-08,6.06577469e-07,5.0123497e-05,0.000133360991,0.000201340615,0.000253866104
1.45,5.8994247e-08,5.29361973e-07,4.43600422e-05,0.000128019189,0.000196540808,0.000249608108
1.5,5.87931461e-08,4.7370631e-07,3.86621084e-05,0.000122690008,0.000191751633,0.000245358825
1.55,5.86126192e-08,4.32373712e-07,3.30647769e-05,0.00011737341,0.000186973051,0.00024111823
1.6,5.84496948e-08,4.00866246e-07,2.76276208e-05,0.000112069366,0.000182205024,0.000236886296
1.65,5.83019387e-08,3.76294732e-07,2.24472189e-05,0.000106777858,0.000177447509,0.000232662999
1.7,5.81673402e-08,3.56746496e-07,1.76655109e-05,0.000101498888,0.000172700465,0.000228448313
1.75,5.8044225e-08,3.40920176e-07,1.34566982e-05,9.62324908e-05,0.000167963849,0.000224242212
1.8,5.79311883e-08,3.27908169e-07,9.97561357e-06,9.09787495e-05,0.000163237614,0.000220044671
1.85,5.78270437e-08,3.17063198e-07,7.28583373e-06,8.57378276e-05,0.000158521713,0.000215855662
1.9,5.77307825e-08,3.07914244e-07,5.32812872e-06,8.05100157e-05,0.000153816095,0.000211675159
1.95,5.76415421e-08,3.00112246e-07,3.95938445e-06,7.52958095e-05,0.000149120708,0.000207503134
2.0,5.75585808e-08,2.93394206e-07,3.01905586e-06,7.00960372e-05,0.000144435496,0.000203339559
2.05,5.74812572e-08,2.87558969e-07,2.3723249e-06,6.49120701e-05,0.000139760398,0.000199184406
2.1,5.74090142e-08,2.82450562e-07,1.92156137e-06,5.97461749e-05,0.000135095351,0.000195037646
2.15,5.73413657e-08,2.77946516e-07,1.60110258e-06,5.46021041e-05,0.000130440285,0.000190899248
2.2,5.72778855e-08,2.73949565e-07,1.36812787e-06,4.94860869e-05,0.000125795125,0.000186769183
2.25,5.72181986e-08,2.70381633e-07,1.19488178e-06,4.4408475e-05,0.000121159792,0.000182647416
2.3,5.71619734e-08,2.67179441e-07,1.06323579e-06,3.93864081e-05,0.000116534198,0.000178533917
2.35,5.71089161e-08,2.64291238e-07,9.61172876e-07,3.44479006e-05,0.000111918249,0.000174428649
2.4,5.70587653e-08,2.61674349e-07,8.80581501e-07,2.96374571e-05,0.000107311844,0.000170331577
2.45,5.70112875e-08,2.59293307e-07,8.15879727e-07,2.50221501e-05,0.000102714875,0.000166242663
2.5,5.69662737e-08,2.57118429e-07,7.63151671e-07,2.06944692e-05,9.8127231e-05,0.000162161868
2.55,5.69235361e-08,2.551247e-07,7.19598716e-07,1.67651318e-05,9.35487981e-05,0.000158089148
2.6,5.68829056e-08,2.53290914e-07,6.83185241e-07,1.33401552e-05,8.89794701e-05,0.000154024459
2.65,5.68442295e-08,2.51598981e-07,6.52406017e-07,1.04874652e-05,8.441916e-05,0.000149967752
2.7,5.68073697e-08,2.5003339e-07,6.26130825e-07,8.21264224e-06,7.98678223e-05,0.000145918976
2.75,5.67722005e-08,2.48580771e-07,6.03498886e-07,6.46115502e-06,7.53254908e-05,0.000141878075
2.8,5.6738608e-08,2.47229544e-07,5.83845953e-07,5.14309249e-06,7.07923433e-05,0.000137844988
2.85,5.6706488e-08,2.45969634e-07,5.66653163e-07,4.16149526e-06,6.62688079e-05,0.000133819647
2.9,5.66757455e-08,2.44792236e-07,5.51510636e-07,3.43062939e-06,6.17557416e-05,0.000129801981
2.95,5.66462935e-08,2.43689627e-07,5.38091184e-07,2.88264422e-06,5.72547259e-05,0.000125791908
3.0,5.66180523e-08,2.42655002e-07,5.26131097e-07,2.46707975e-06,5.27685526e-05,0.000121789339
3.05,5.65909484e-08,2.4168235e-07,5.1541591e-07,2.14760055e-06,4.83020134e-05,0.000117794173
3.1,5.65649145e-08,2.40766337e-07,5.05769745e-07,1.89839447e-06,4.38631545e-05,0.000113806301
3.15,5.65398882e-08,2.39902216e-07,4.97047246e-07,1.70116172e-06,3.94651924e-05,0.000109825596
3.2,5.65158121e-08,2.39085752e-07,4.89127404e-07,1.54286396e-06,3.51292539e-05,0.000105851918
3.25,5.6492633e-08,2.38313152e-07,4.81908798e-07,1.4141276e-06,3.08878434e-05,0.000101885109
3.3,5.64703018e-08,2.37581012e-07,4.75305884e-07,1.30813783e-06,2.6788264e-05,9.79249926e-05
3.35,5.64487725e-08,2.36886267e-07,4.69246076e-07,1.21987919e-06,2.28940067e-05,9.39713684e-05
3.4,5.6428003e-08,2.36226151e-07,4.63667444e-07,1.14561385e-06,1.92809568e-05,9.00240149e-05
3.45,5.64079535e-08,2.35598162e-07,4.58516868e-07,1.08252128e-06,1.60258892e-05,8.60826875e-05
3.5,5.63885874e-08,2.35000031e-07,4.53748561e-07,1.02844732e-06,1.31888966e-05,8.21471211e-05
3.55,5.63698702e-08,2.34429697e-07,4.49322874e-07,9.81727576e-07,1.07972707e-05,7.82170367e-05
3.6,5.63517701e-08,2.3388528e-07,4.4520532e-07,9.41061933e-07,8.83971111e-06,7.42921558e-05
3.65,5.6334257e-08,2.33365069e-07,4.41365777e-07,9.05424209e-07,7.27337974e-06,7.03722273e-05
3.7,5.63173028e-08,2.32867496e-07,4.37777835e-07,8.73996509e-07,6.03825018e-06,6.64570757e-05
3.75,5.63008812e-08,2.32391125e-07,4.34418248e-07,8.46120947e-07,5.07096525e-06,6.25466846e-05
3.8,5.62849678e-08,2.31934639e-07,4.31266488e-07,8.21263765e-07,4.31384043e-06,5.86413376e-05
3.85,5.62695392e-08,2.31496826e-07,4.2830436e-07,7.98988409e-07,3.71875934e-06,5.47418514e-05
3.9,5.62545737e-08,2.31076572e-07,4.2551569e-07,7.78935109e-07,3.24764636e-06,5.08499544e-05
3.95,5.62400509e-08,2.30672848e-07,4.22886055e-07,7.60805262e-07,2.87127608e-06,4.69688874e-05
4.0,5.62259514e-08,2.30284702e-07,4.20402556e-07,7.44349372e-07,2.56757111e-06,4.31043269e-05
4.05,5.62122572e-08,2.29911257e-07,4.18053627e-07,7.29357661e-07,2.31996032e-06,3.92657419e-05
4.1,5.61989511e-08,2.29551696e-07,4.15828868e-07,7.15652702e-07,2.11600796e-06,3.54682509e-05
4.15,5.61860168e-08,2.29205264e-07,4.13718903e-07,7.03083592e-07,1.94634637e-06,3.17348774e-05
4.2,5.61734391e-08,2.2887126e-07,4.11715262e-07,6.91521316e-07,1.8038748e-06,2.80987294e-05
4.25,5.61612036e-08,2.28549028e-07,4.09810273e-07,6.8085502e-07,1.68316922e-06,2.46040348e-05
4.3,5.61492965e-08,2.28237962e-07,4.07996973e-07,6.70989014e-07,1.58005096e-06,2.13044287e-05
4.35,5.61377049e-08,2.27937494e-07,4.06269028e-07,6.61840324e-07,1.49127214e-06,1.82571045e-05
4.4,5.61264165e-08,2.27647094e-07,4.04620667e-07,6.53336708e-07,1.41428575e-06,1.55131095e-05
4.45,5.61154196e-08,2.27366266e-07,4.03046618e-07,6.45415013e-07,1.34707676e-06,1.31067639e-05
4.5,5.61047032e-08,2.27094548e-07,4.01542057e-07,6.38019825e-07,1.28803728e-06,1.10487373e-05
4.55,5.60942568e-08,2.26831505e-07,4.00102564e-07,6.31102344e-07,1.23587372e-06,9.32578346e-06
4.6,5.60840703e-08,2.2657673e-07,3.98724082e-07,6.24619451e-07,1.1895371e-06,7.90646489e-06
4.65,5.60741342e-08,2.26329842e-07,3.97402876e-07,6.18532922e-07,1.14817035e-06,6.74949926e-06
4.7,5.60644396e-08,2.26090481e-07,3.9613551e-07,6.12808767e-07,1.11106819e-06,5.81134227e-06
4.75,5.60549778e-08,2.2585831e-07,3.9491881e-07,6.07416673e-07,1.07764632e-06,5.05129329e-06
4.8,5.60457406e-08,2.25633012e-07,3.93749845e-07,6.02329527e-07,1.04741748e-06,4.43404077e-06
4.85,5.60367201e-08,2.25414286e-07,3.92625905e-07,5.97523019e-07,1.0199729e-06,3.93035737e-06
4.9,5.6027909e-08,2.25201852e-07,3.91544475e-07,5.92975291e-07,9.94967671e-07,3.51674905e-06
4.95,5.60193e-08,2.24995441e-07,3.90503225e-07,5.88666642e-07,9.72109148e-07,3.17465308e-06
5.0,5.60108864e-08,2.24794804e-07,3.89499987e-07,5.84579277e-07,9.5114776e-07,2.88953474e-06
5.05,5.60026616e-08,2.24599701e-07,3.88532749e-07,5.80697082e-07,9.31869615e-07,2.65005217e-06
5.1,5.59946195e-08,2.24409909e-07,3.87599632e-07,5.77005435e-07,9.14090551e-07,2.44735164e-06
5.15,5.59867541e-08,2.24225214e-07,3.86698887e-07,5.73491043e-07,8.97651294e-07,2.27450147e-06
5.2,5.59790597e-08,2.24045415e-07,3.85828881e-07,5.70141793e-07,8.82413524e-07,2.12604983e-06
5.25,5.59715309e-08,2.2387032e-07,3.84988088e-07,5.66946628e-07,8.68256632e-07,1.99768454e-06
5.3,5.59641624e-08,2.23699748e-07,3.84175078e-07,5.63895437e-07,8.5507506e-07,1.8859734e-06
5.35,5.59569493e-08,2.23533527e-07,3.83388515e-07,5.60978956e-07,8.42776082e-07,1.7881665e-06
5.4,5.59498867e-08,2.23371493e-07,3.82627146e-07,5.58188683e-07,8.31277969e-07,1.70204573e-06
5.45,5.594297e-08,2.2321349e-07,3.81889793e-07,5.55516806e-07,8.20508446e-07,1.62580991e-06
5.5,5.59361949e-08,2.23059371e-07,3.81175351e-07,5.52956128e-07,8.104034e-07,1.55798665e-06
5.55,5.5929557e-08,2.22908994e-07,3.80482783e-07,5.50500016e-07,8.00905788e-07,1.49736463e-06
5.6,5.59230524e-08,2.22762227e-07,3.79811109e-07,5.48142343e-07,7.91964712e-07,1.44294105e-06
5.65,5.5916677e-08,2.2261894e-07,3.7915941e-07,5.45877445e-07,7.83534634e-07,1.39388073e-06
5.7,5.59104272e-08,2.22479013e-07,3.78526818e-07,5.43700075e-07,7.75574704e-07,1.34948407e-06
5.75,5.59042994e-08,2.22342329e-07,3.77912514e-07,5.41605368e-07,7.68048187e-07,1.30916182e-06
5.8,5.589829e-08,2.22208776e-07,3.77315725e-07,5.39588807e-07,7.6092197e-07,1.27241503e-06
5.85,5.58923956e-08,2.2207825e-07,3.76735721e-07,5.37646192e-07,7.54166134e-07,1.2388191e-06
5.9,5.58866132e-08,2.21950649e-07,3.76171812e-07,5.35773616e-07,7.47753587e-07,1.20801092e-06
5.95,5.58809395e-08,2.21825876e-07,3.75623343e-07,5.33967436e-07,7.41659747e-07,1.17967861e-06
6.0,5.58753717e-08,2.21703838e-07,3.75089696e-07,5.32224254e-07,7.35862262e-07,1.15355304e-06
6.05,5.58699067e-08,2.21584448e-07,3.74570285e-07,5.30540897e-07,7.30340768e-07,1.12940107e-06
6.1,5.58645418e-08,2.2146762e-07,3.74064553e-07,5.28914398e-07,7.25076678e-07,1.10701989e-06
6.15,5.58592744e-08,2.21353273e-07,3.73571972e-07,5.2734198e-07,7.20052996e-07,1.08623242e-06
6.2,5.58541019e-08,2.2124133e-07,3.73092043e-07,5.25821042e-07,7.15254153e-07,1.0668835e-06
6.25,5.58490217e-08,2.21131715e-07,3.72624287e-07,5.24349144e-07,7.10665866e-07,1.04883667e-06
6.3,5.58440315e-08,2.21024357e-07,3.72168253e-07,5.22923995e-07,7.06275005e-07,1.03197157e-06
6.35,5.5839129e-08,2.20919188e-07,3.7172351e-07,5.21543446e-07,7.02069487e-07,1.01618164e-06
6.4,5.58343118e-08,2.20816142e-07,3.71289648e-07,5.20205471e-07,6.98038171e-07,1.00137233e-06
6.45,5.58295779e-08,2.20715155e-07,3.70866277e-07,5.18908168e-07,6.94170774e-07,9.87459448e-07
6.5,5.58249251e-08,2.20616167e-07,3.70453024e-07,5.17649742e-07,6.90457786e-07,9.74367827e-07
6.55,5.58203513e-08,2.20519119e-07,3.70049534e-07,5.16428501e-07,6.86890406e-07,9.62030201e-07
6.6,5.58158548e-08,2.20423955e-07,3.6965547e-07,5.15242852e-07,6.83460473e-07,9.50386202e-07
