vds,vb1,vb2,vb3,vb4,vb5,vb6
0.0,0.000683300703,0.00244789176,0.00379643994,0.00476806538,0.00542576534,0.00586769195
0.05,0.000515354552,0.00225204226,0.00358885962,0.00456194468,0.00523046379,0.0056874055
0.1,0.000357001022,0.00206328985,0.00338829751,0.00436210435,0.00504045236,0.00551144646
0.15,0.000216876204,0.00188134496,0.00319447654,0.00416832386,0.00485556786,0.00533969754
0.2,0.000118890427,0.00170593362,0.00300712617,0.00398038742,0.00467565041,0.00517204374
0.25,7.44214332e-05,0.00153680291,0.00282598117,0.00379808246,0.00450054244,0.00500837168
0.3,5.69610834e-05,0.00137373055,0.00265078218,0.0036211992,0.00433008802,0.00484856914
0.35,4.82564073e-05,0.00121653977,0.00248127745,0.00344953112,0.00416413274,0.0046925248
0.4,4.2859415e-05,0.00106512553,0.00231722446,0.00328287607,0.004002524,0.00454012821
0.45,3.90891867e-05,0.000919514304,0.00215839034,0.00312103777,0.00384511173,0.00439126997
0.5,3.62739366e-05,0.000780026439,0.00200454968,0.00296382713,0.00369174919,0.00424584208
0.55,3.40815566e-05,0.00064774304,0.00185547813,0.00281106305,0.0035422939,0.00410373838
0.6,3.23232479e-05,0.000525609758,0.00171093913,0.0026625725,0.00339660851,0.00396485512
0.65,3.08814762e-05,0.000419390017,0.00157065914,0.0025181893,0.00325456142,0.00382909144
0.7,2.9678377e-05,0.000334807809,0.00143428287,0.00237775132,0.00311602714,0.00369634985
0.75,2.86599786e-05,0.00027220867,0.00130129686,0.00224109523,0.00298088623,0.0035665367
0.8,2.7787549e-05,0.000227111412,0.00117091786,0.00210804775,0.00284902479,0.00343956238
0.85,2.70325109e-05,0.000194322246,0.00104201403,0.00197841113,0.00272033323,0.00331534152
0.9,2.63732916e-05,0.000169889915,0.00091339041,0.00185193932,0.0025947043,0.00319379295
0.95,2.57932889e-05,0.000151176592,0.000785191973,0.00172829835,0.00247203,0.00307483944
1.0,2.52795125e-05,0.000136470592,0.0006613773,0.00160700141,0.00235219681,0.00295840724
1.05,2.48216502e-05,0.000124650166,0.000549696153,0.00148730751,0.0022350785,0.00284442532
1.1,2.44114111e-05,0.000114963007,0.000456594086,0.00136808682,0.00212052512,0.0027328242
1.15,2.40420538e-05,0.000106891096,0.000383208499,0.00124772578,0.00200834569,0.00262353438
1.2,2.37080405e-05,0.000100068405,0.000326720143,0.00112435076,0.00189828099,0.00251648398
1.25,2.34047807e-05,9.42300465e-05,0.000283252196,0.000996944315,0.00178996052,0.00241159548
1.3,2.31284373e-05,8.91801295e-05,0.000249406781,0.000867540923,0.00168283605,0.00230878094
1.35,2.28757786e-05,8.47709494e-05,0.000222616235,0.000742506598,0.00157608598,0.00220793495
1.4,2.26440639e-05,8.08891839e-05,0.000201039363,0.000629892655,0.00146850223,0.00210892401
1.45,2.24309538e-05,7.74465275e-05,0.000183372311,0.000534793576,0.00135843276,0.0020115705
1.5,2.22344402e-05,7.43732014e-05,0.000168686992,0.000457762532,0.00124399951,0.00191562794
1.55,2.20527892e-05,7.16133701e-05,0.000156314313,0.000396486012,0.00112397984,0.00182074344
1.6,2.18844967e-05,6.91218442e-05,0.000145764269,0.000347821626,0.000999473469,0.00172640221
1.65,2.17282514e-05,6.68616727e-05,0.000136672089,0.000308881632,0.000875178591,0.00163185143
1.7,2.15829053e-05,6.48023558e-05,0.000128761858,0.000277355545,0.000758169256,0.00153601385
1.75,2.1447449e-05,6.29185027e-05,0.000121821693,0.000251495382,0.000654475747,0.00143744223
1.8,2.13209916e-05,6.11888087e-05,0.000115686581,0.000230004572,0.000566734286,0.00133445289
1.85,2.1202744e-05,5.95952682e-05,0.000110226329,0.00021192365,0.000494465944,0.00122568213
1.9,2.10920048e-05,5.81225623e-05,0.000105336987,0.000196538219,0.000435576234,0.00111121329
1.95,2.09881485e-05,5.67575773e-05,0.000100934641,0.000183310912,0.000387584254,0.000993767152
2.0,2.08906156e-05,5.54890227e-05,9.69508669e-05,0.000171832686,0.000348229742,0.000878628542
2.05,2.07989043e-05,5.43071263e-05,9.33293542e-05,0.0001617883,0.000315660088,0.000771673292
2.1,2.07125631e-05,5.32033876e-05,9.00233637e-05,0.000152931824,0.00028842597,0.000676996217
2.15,2.06311851e-05,5.21703786e-05,8.69937953e-05,0.000145069139,0.000265414604,0.000596015465
2.2,2.0554402e-05,5.12015794e-05,8.42077014e-05,0.000138045319,0.000245775414,0.000528084665
2.25,2.04818805e-05,5.02912448e-05,8.16371312e-05,0.000131735426,0.000228856274,0.000471537685
2.3,2.04133176e-05,4.94342922e-05,7.92582249e-05,0.000126037733,0.000214153739,0.000424460242
2.35,2.03484375e-05,4.86262094e-05,7.70504961e-05,0.000120868661,0.000201275689,0.000385079735
2.4,2.02869889e-05,4.78629766e-05,7.49962598e-05,0.000116158968,0.000189913756,0.000351900805
2.45,2.02287419e-05,4.71410014e-05,7.30801715e-05,0.000111850842,0.000179823035,0.000323716295
2.5,2.01734861e-05,4.64570637e-05,7.12888549e-05,0.000107895667,0.00017080714,0.000299570849
2.55,2.01210287e-05,4.58082684e-05,6.96105976e-05,0.000104252284,0.000162707117,0.000278713609
2.6,2.00711922e-05,4.51920058e-05,6.80351009e-05,0.000100885628,0.000155393167,0.000260554324
2.65,2.00238137e-05,4.46059174e-05,6.65532744e-05,9.7765654e-05,0.000148758409,0.000244627044
2.7,1.99787424e-05,4.40478663e-05,6.51570639e-05,9.48664753e-05,0.000142714141,0.000230561615
2.75,1.99358395e-05,4.35159118e-05,6.38393089e-05,9.2165675e-05,0.000137186202,0.000218061783
2.8,1.98949767e-05,4.30082876e-05,6.25936222e-05,8.96437478e-05,0.000132112162,0.00020688857
2.85,1.9856035e-05,4.25233826e-05,6.14142886e-05,8.72836458e-05,0.000127439122,0.000196847651
2.9,1.98189044e-05,4.2059724e-05,6.02961794e-05,8.50704054e-05,0.000123121989,0.000187779772
2.95,1.97834825e-05,4.16159635e-05,5.92346789e-05,8.29908408e-05,0.000119122106,0.000179553422
3.0,1.97496744e-05,4.11908636e-05,5.82256221e-05,8.10332888e-05,0.000115406154,0.000172059213
3.05,1.97173916e-05,4.0783287e-05,5.72652416e-05,7.91873967e-05,0.000111945276,0.000165205527
3.1,1.96865517e-05,4.03921867e-05,5.63501208e-05,7.7443944e-05,0.000108714357,0.000158915126
3.15,1.96570778e-05,4.00165969e-05,5.54771543e-05,7.57946926e-05,0.000105691444,0.000153122494
3.2,1.96288982e-05,3.96556256e-05,5.46435138e-05,7.42322603e-05,0.000102857269,0.000147771732
3.25,1.96019457e-05,3.93084475e-05,5.38466174e-05,7.27500125e-05,0.000100194852,0.000142814885
3.3,1.95761575e-05,3.89742981e-05,5.30841034e-05,7.13419707e-05,9.76891762e-05,0.0001382106
3.35,1.9551475e-05,3.86524679e-05,5.23538079e-05,7.00027333e-05,9.53269113e-05,0.000133923043
3.4,1.95278428e-05,3.8342298e-05,5.16537442e-05,6.87274084e-05,9.30961871e-05,0.000129921019
3.45,1.95052092e-05,3.80431751e-05,5.0982085e-05,6.75115551e-05,9.09863996e-05,0.000126177253
3.5,1.94835257e-05,3.77545284e-05,5.03371469e-05,6.63511327e-05,8.89880473e-05,0.000122667804
3.55,1.94627466e-05,3.74758252e-05,4.97173768e-05,6.52424572e-05,8.70925926e-05,0.000119371568
3.6,1.94428287e-05,3.72065683e-05,4.91213389e-05,6.41821625e-05,8.52923432e-05,0.000116269882
3.65,1.94237316e-05,3.69462929e-05,4.85477047e-05,6.31671673e-05,8.35803508e-05,0.000113346177
3.7,1.94054171e-05,3.66945639e-05,4.79952425e-05,6.21946455e-05,8.19503235e-05,0.000110585702
3.75,1.93878492e-05,3.64509741e-05,4.74628092e-05,6.12620005e-05,8.03965504e-05,0.000107975275
3.8,1.93709938e-05,3.62151412e-05,4.69493421e-05,6.03668424e-05,7.89138367e-05,0.000105503089
3.85,1.93548188e-05,3.59867067e-05,4.64538524e-05,5.9506968e-05,7.74974465e-05,0.000103158535
3.9,1.93392939e-05,3.57653335e-05,4.59754186e-05,5.8680343e-05,7.61430539e-05,0.000100932053
3.95,1.93243902e-05,3.55507047e-05,4.55131811e-05,5.78850858e-05,7.48466995e-05,9.88150098e-05
4.0,1.93100806e-05,3.53425219e-05,4.5066337e-05,5.71194541e-05,7.36047527e-05,9.6799589e-05
4.05,1.92963392e-05,3.51405041e-05,4.46341354e-05,5.63818318e-05,7.24138782e-05,9.48786962e-05
4.1,1.92831416e-05,3.49443862e-05,4.42158734e-05,5.5670718e-05,7.1271007e-05,9.30458788e-05
4.15,1.92704646e-05,3.47539181e-05,4.38108925e-05,5.49847172e-05,7.01733104e-05,9.12952552e-05
4.2,1.9258286e-05,3.45688634e-05,4.34185747e-05,5.43225296e-05,6.91181766e-05,8.96214534e-05
4.25,1.92465851e-05,3.43889987e-05,4.30383401e-05,5.36829437e-05,6.81031911e-05,8.80195574e-05
4.3,1.92353419e-05,3.42141129e-05,4.26696434e-05,5.30648287e-05,6.71261179e-05,8.64850599e-05
4.35,1.92245374e-05,3.40440059e-05,4.23119716e-05,5.24671281e-05,6.61848837e-05,8.50138208e-05
4.4,1.92141536e-05,3.38784882e-05,4.19648418e-05,5.18888531e-05,6.52775635e-05,8.36020311e-05
4.45,1.92041734e-05,3.37173801e-05,4.16277988e-05,5.13290783e-05,6.44023673e-05,8.22461802e-05
4.5,1.91945804e-05,3.35605111e-05,4.13004134e-05,5.07869358e-05,6.35576287e-05,8.09430278e-05
4.55,1.9185359e-05,3.34077195e-05,4.09822803e-05,5.02616114e-05,6.27417946e-05,7.96895783e-05
4.6,1.91764943e-05,3.32588515e-05,4.06730165e-05,4.97523403e-05,6.19534157e-05,7.8483058e-05
4.65,1.91679722e-05,3.3113761e-05,4.03722602e-05,4.92584032e-05,6.11911379e-05,7.73208956e-05
4.7,1.9159779e-05,3.29723089e-05,4.00796688e-05,4.87791237e-05,6.04536946e-05,7.62007038e-05
4.75,1.91519019e-05,3.2834363e-05,3.9794918e-05,4.83138644e-05,5.97399003e-05,7.51202632e-05
4.8,1.91443283e-05,3.26997974e-05,3.95177003e-05,4.78620244e-05,5.90486435e-05,7.40775081e-05
4.85,1.91370465e-05,3.25684919e-05,3.92477243e-05,4.74230369e-05,5.83788817e-05,7.30705133e-05
4.9,1.91300452e-05,3.2440332e-05,3.89847136e-05,4.69963668e-05,5.77296356e-05,7.20974824e-05
4.95,1.91233134e-05,3.23152087e-05,3.87284055e-05,4.65815082e-05,5.70999848e-05,7.11567376e-05
5.0,1.91168407e-05,3.21930177e-05,3.84785504e-05,4.61779829e-05,5.64890636e-05,7.02467098e-05
5.05,1.91106172e-05,3.20736594e-05,3.82349111e-05,4.57853381e-05,5.58960563e-05,6.93659302e-05
5.1,1.91046333e-05,3.19570388e-05,3.7997262e-05,4.54031452e-05,5.53201946e-05,6.85130221e-05
5.15,1.90988799e-05,3.18430649e-05,3.77653882e-05,4.50309977e-05,5.47607535e-05,6.76866945e-05
5.2,1.90933481e-05,3.17316508e-05,3.7539085e-05,4.46685104e-05,5.42170486e-05,6.68857349e-05
5.25,1.90880294e-05,3.16227133e-05,3.73181573e-05,4.43153172e-05,5.36884333e-05,6.6109004e-05
5.3,1.90829158e-05,3.15161728e-05,3.71024193e-05,4.3971071e-05,5.31742962e-05,6.53554298e-05
5.35,1.90779994e-05,3.1411953e-05,3.68916933e-05,4.36354415e-05,5.26740589e-05,6.46240033e-05
5.4,1.90732727e-05,3.13099807e-05,3.66858101e-05,4.33081147e-05,5.21871737e-05,6.39137735e-05
5.45,1.90687285e-05,3.12101858e-05,3.64846076e-05,4.2988792e-05,5.17131213e-05,6.32238435e-05
5.5,1.90643598e-05,3.11125012e-05,3.62879314e-05,4.26771889e-05,5.12514095e-05,6.25533668e-05
5.55,1.90601599e-05,3.10168624e-05,3.60956335e-05,4.23730343e-05,5.08015713e-05,6.19015436e-05
5.6,1.90561224e-05,3.09232073e-05,3.59075724e-05,4.20760701e-05,5.03631631e-05,6.12676181e-05
5.65,1.90522411e-05,3.08314767e-05,3.57236127e-05,4.17860498e-05,4.99357634e-05,6.0650875e-05
5.7,1.90485098e-05,3.07416133e-05,3.55436247e-05,4.15027382e-05,4.95189716e-05,6.00506371e-05
5.75,1.9044923e-05,3.06535622e-05,3.53674844e-05,4.1225911e-05,4.91124065e-05,5.9466263e-05
5.8,1.90414748e-05,3.05672707e-05,3.51950725e-05,4.09553536e-05,4.87157051e-05,5.88971443e-05
5.85,1.90381601e-05,3.0482688e-05,3.50262748e-05,4.06908609e-05,4.83285218e-05,5.83427039e-05
5.9,1.90349735e-05,3.03997652e-05,3.4860982e-05,4.04322371e-05,4.7950527e-05,5.78023938e-05
5.95,1.903191e-05,3.03184553e-05,3.46990887e-05,4.01792943e-05,4.75814067e-05,5.72756937e-05
6.0,1.90289647e-05,3.02387131e-05,3.45404942e-05,3.99318531e-05,4.72208609e-05,5.67621085e-05
6.05,1.9026133e-05,3.01604949e-05,3.43851013e-05,3.96897413e-05,4.68686034e-05,5.62611677e-05
6.1,1.90234103e-05,3.00837586e-05,3.4232817e-05,3.94527942e-05,4.65243608e-05,5.57724232e-05
6.15,1.90207921e-05,3.00084639e-05,3.40835516e-05,3.92208538e-05,4.61878718e-05,5.52954482e-05
6.2,1.90182742e-05,2.99345715e-05,3.39372189e-05,3.89937683e-05,4.58588864e-05,5.4829836e-05
6.25,1.90158524e-05,2.98620438e-05,3.37937361e-05,3.87713924e-05,4.55371656e-05,5.43751991e-05
6.3,1.90135228e-05,2.97908445e-05,3.36530233e-05,3.85535865e-05,4.52224804e-05,5.39311673e-05
6.35,1.90112814e-05,2.97209385e-05,3.35150038e-05,3.83402163e-05,4.49146116e-05,5.34973875e-05
6.4,1.90091244e-05,2.96522919e-05,3.33796033e-05,3.8131153e-05,4.46133491e-05,5.30735223e-05
6.45,1.90070483e-05,2.95848718e-05,3.32467508e-05,3.79262727e-05,4.43184915e-05,5.26592494e-05
6.5,1.90050493e-05,2.95186469e-05,3.31163773e-05,3.77254563e-05,4.40298457e-05,5.22542604e-05
6.55,1.90031241e-05,2.94535863e-05,3.29884165e-05,3.75285891e-05,4.37472263e-05,5.18582605e-05
6.6,1.90012693e-05,2.93896608e-05,3.28628046e-05,3.73355608e-05,4.34704554e-05,5.14709673e-05
