vds,vb1,vb2,vb3,vb4,vb5,vb6
0.0,0.00033073205,0.0014066657,0.00222395153,0.0028377322,0.00328236923,0.00356869033
0.05,0.00024824672,0.00130861866,0.0021219075,0.00273720143,0.00318705291,0.00348103998
0.1,0.000169179114,0.00121295389,0.00202224775,0.00263883028,0.00309358414,0.00339490823
0.15,9.76304735e-05,0.00111960423,0.00192490511,0.00254256322,0.00300192032,0.00331026394
0.2,4.58464035e-05,0.00102850575,0.00182981423,0.0024483461,0.00291201985,0.00322707662
0.25,2.21164779e-05,0.00093959836,0.00173691145,0.00235612604,0.00282384202,0.00314531635
0.3,1.37003557e-05,0.000852826978,0.00164613464,0.00226585134,0.00273734694,0.0030649538
0.35,1.01583286e-05,0.000768143662,0.00155742321,0.00217747143,0.00265249549,0.00298596011
0.4,8.2534433e-06,0.000685511873,0.00147071796,0.00209093686,0.00256924931,0.00290830695
0.45,7.04589248e-06,0.000604915593,0.00138596094,0.00200619927,0.00248757078,0.00283196646
0.5,6.20025891e-06,0.000526380674,0.00130309522,0.00192321141,0.00240742305,0.00275691124
0.55,5.56954067e-06,0.000450028428,0.00122206435,0.0018419271,0.00232877001,0.00268311438
0.6,5.07853509e-06,0.000376215131,0.00114281154,0.0017623012,0.00225157633,0.00261054947
0.65,4.68426477e-06,0.000305874933,0.00106527822,0.00168428951,0.00217580749,0.00253919056
0.7,4.36012264e-06,0.000241139876,0.000989401811,0.00160784858,0.00210142975,0.00246901226
0.75,4.08862764e-06,0.000185547966,0.000915111873,0.00153293542,0.00202841015,0.00239998968
0.8,3.85775903e-06,0.000142156275,0.000842323983,0.00145950708,0.00195671651,0.00233209846
0.85,3.65894789e-06,0.000110884351,0.000770929824,0.00138752,0.00188631734,0.00226531481
0.9,3.48590504e-06,8.90594905e-05,0.000700782438,0.00131692901,0.00181718174,0.00219961546
0.95,3.33390155e-06,7.37005693e-05,0.000631678529,0.00124768594,0.00174927931,0.0021349777
1.0,3.19930835e-06,6.25938531e-05,0.00056335385,0.00117973738,0.00168257991,0.00207137933
1.05,3.07929135e-06,5.43043247e-05,0.000495551703,0.00111302137,0.00161705344,0.00200879863
1.1,2.97160339e-06,4.79303677e-05,0.000428311392,0.00104746225,0.00155266943,0.00194721434
1.15,2.87443882e-06,4.28995075e-05,0.000362619126,0.000982962584,0.00148939655,0.00188660558
1.2,2.78632957e-06,3.88388565e-05,0.000301012617,0.000919390701,0.0014272019,0.00182695178
1.25,2.70606934e-06,3.54982808e-05,0.000246888859,0.000856561854,0.00136604997,0.00176823256
1.3,2.63265755e-06,3.2705078e-05,0.000202471202,0.000794211491,0.00130590126,0.00171042761
1.35,2.56525709e-06,3.03367828e-05,0.000167724287,0.000731963672,0.00124671007,0.00165351646
1.4,2.50316216e-06,2.83044368e-05,0.000141106044,0.000669313398,0.00118842152,0.0015974783
1.45,2.44577341e-06,2.65420156e-05,0.000120723449,0.00060568251,0.0011309669,0.00154229159
1.5,2.39257855e-06,2.49995674e-05,0.000104942279,0.000540674954,0.00107425681,0.00148793365
1.55,2.34313709e-06,2.36386488e-05,9.25270913e-05,0.000474650738,0.00101817098,0.0014343801
1.6,2.29706813e-06,2.24292172e-05,8.25904888e-05,0.000409393442,0.00096254317,0.00138160395
1.65,2.25404062e-06,2.13474715e-05,7.45040332e-05,0.0003480334,0.000907139786,0.00132957455
1.7,2.21376545e-06,2.03743205e-05,6.78211994e-05,0.000293717883,0.000851632031,0.00127825591
1.75,2.17598898e-06,1.94942794e-05,6.22210815e-05,0.000248122076,0.000795566721,0.00122760446
1.8,2.14048781e-06,1.86946609e-05,5.74696141e-05,0.000211158167,0.000738356053,0.00117756567
1.85,2.10706435e-06,1.79649729e-05,5.33933432e-05,0.000181671031,0.00067933825,0.00112806933
1.9,2.07554323e-06,1.72964657e-05,4.98616923e-05,0.000158200949,0.000618001868,0.0010790226
1.95,2.04576823e-06,1.66817857e-05,4.67748726e-05,0.000139405349,0.000554447953,0.00103030003
2.0,2.01759975e-06,1.6114709e-05,4.40555392e-05,0.000124196193,0.000489942189,0.000981729454
2.05,1.99091268e-06,1.55899324e-05,4.16429519e-05,0.000111739576,0.000427027022,0.00093307301
2.1,1.96559453e-06,1.51029103e-05,3.94888298e-05,0.000101410501,0.000368739524,0.00088400361
2.15,1.94154389e-06,1.46497241e-05,3.7554365e-05,9.27430093e-05,0.000317384068,0.000834082105
2.2,1.9186691e-06,1.42269781e-05,3.58080419e-05,8.53884532e-05,0.00027385852,0.000782750856
2.25,1.89688713e-06,1.38317153e-05,3.42240239e-05,7.90838106e-05,0.000237840029,0.000729380082
2.3,1.87612255e-06,1.34613486e-05,3.27809445e-05,7.3628585e-05,0.000208351858,0.000673427644
2.35,1.85630668e-06,1.31136054e-05,3.14609912e-05,6.88682116e-05,0.000184241752,0.000614764111
2.4,1.83737691e-06,1.27864807e-05,3.02492033e-05,6.46821691e-05,0.000164439551,0.000554097961
2.45,1.81927597e-06,1.24781992e-05,2.9132928e-05,6.09754299e-05,0.000148049634,0.000493206524
2.5,1.80195141e-06,1.21871836e-05,2.81013961e-05,5.76722648e-05,0.000134358828,0.00043460904
2.55,1.78535512e-06,1.19120273e-05,2.71453866e-05,5.47117125e-05,0.00012281198,0.000380731373
2.6,1.76944285e-06,1.16514722e-05,2.62569598e-05,5.20442325e-05,0.000112980427,0.000333138012
2.65,1.75417386e-06,1.14043898e-05,2.54292441e-05,4.96292072e-05,0.000104533165,0.000292309734
2.7,1.73951057e-06,1.11697646e-05,2.46562632e-05,4.7433058e-05,9.72134372e-05,0.000257900521
2.75,1.72541825e-06,1.09466807e-05,2.39327957e-05,4.54278098e-05,9.08206702e-05,0.000229134534
2.8,1.71186479e-06,1.07343094e-05,2.32542602e-05,4.35899882e-05,8.51968848e-05,0.00020511435
2.85,1.69882041e-06,1.05318996e-05,2.26166208e-05,4.18997618e-05,8.02165508e-05,0.000184991399
2.9,1.68625748e-06,1.03387687e-05,2.20163086e-05,4.03402716e-05,7.57790328e-05,0.000168034548
2.95,1.67415034e-06,1.0154295e-05,2.1450156e-05,3.88971011e-05,7.18029466e-05,0.000153642851
3.0,1.66247509e-06,9.97791081e-06,2.09153426e-05,3.75578545e-05,6.82219202e-05,0.000141333867
3.05,1.65120949e-06,9.80909723e-06,2.0409349e-05,3.63118184e-05,6.49813873e-05,0.000130724286
3.1,1.64033278e-06,9.64737862e-06,1.99299174e-05,3.51496883e-05,6.20361439e-05,0.000121510373
3.15,1.62982557e-06,9.49231834e-06,1.94750193e-05,3.40633471e-05,5.93484706e-05,0.000113451013
3.2,1.61966975e-06,9.3435148e-06,1.90428266e-05,3.30456827e-05,5.6886679e-05,0.000106353936
3.25,1.60984834e-06,9.20059805e-06,1.86316878e-05,3.20904386e-05,5.46239761e-05,0.000100064909
3.3,1.60034546e-06,9.06322669e-06,1.82401076e-05,3.11920899e-05,5.25375715e-05,9.44593678e-05
3.35,1.5911462e-06,8.93108518e-06,1.78667281e-05,3.03457403e-05,5.06079694e-05,8.94359956e-05
3.4,1.58223657e-06,8.80388147e-06,1.75103141e-05,2.95470357e-05,4.88184031e-05,8.49117882e-05
3.45,1.5736034e-06,8.68134482e-06,1.71697394e-05,2.87920917e-05,4.71543804e-05,8.08182623e-05
3.5,1.56523432e-06,8.5632239e-06,1.68439751e-05,2.80774323e-05,4.5603316e-05,7.70985253e-05
3.55,1.5571177e-06,8.4492851e-06,1.6532079e-05,2.7399938e-05,4.41542316e-05,7.37049999e-05
3.6,1.54924254e-06,8.33931098e-06,1.62331873e-05,2.67568014e-05,4.27975102e-05,7.05976464e-05
3.65,1.5415985e-06,8.2330989e-06,1.59465061e-05,2.61454893e-05,4.1524694e-05,6.77425656e-05
3.7,1.5341758e-06,8.13045979e-06,1.56713046e-05,2.55637104e-05,4.03283167e-05,6.51108922e-05
3.75,1.5269652e-06,8.03121703e-06,1.54069094e-05,2.50093868e-05,3.92017636e-05,6.2677914e-05
3.8,1.51995798e-06,7.93520545e-06,1.51526982e-05,2.44806306e-05,3.81391547e-05,6.04223657e-05
3.85,1.51314588e-06,7.84227039e-06,1.49080959e-05,2.39757219e-05,3.71352463e-05,5.83258593e-05
3.9,1.50652108e-06,7.75226692e-06,1.46725695e-05,2.34930912e-05,3.61853481e-05,5.63724212e-05
3.95,1.50007616e-06,7.66505905e-06,1.44456249e-05,2.30313031e-05,3.52852525e-05,5.45481151e-05
4.0,1.49380409e-06,7.58051908e-06,1.42268029e-05,2.25890427e-05,3.44311747e-05,5.28407319e-05
4.05,1.48769821e-06,7.49852697e-06,1.40156766e-05,2.21651025e-05,3.36197009e-05,5.12395339e-05
4.1,1.48175218e-06,7.41896975e-06,1.38118485e-05,2.17583728e-05,3.28477446e-05,4.97350424e-05
4.15,1.47595999e-06,7.34174106e-06,1.36149479e-05,2.13678309e-05,3.21125086e-05,4.83188609e-05
4.2,1.47031591e-06,7.26674062e-06,1.34246288e-05,2.09925336e-05,3.14114517e-05,4.69835263e-05
4.25,1.46481451e-06,7.19387384e-06,1.32405677e-05,2.06316093e-05,3.07422606e-05,4.57223845e-05
4.3,1.45945059e-06,7.1230514e-06,1.30624622e-05,2.02842514e-05,3.01028249e-05,4.45294846e-05
4.35,1.45421924e-06,7.05418889e-06,1.28900289e-05,1.99497123e-05,2.94912156e-05,4.33994896e-05
4.4,1.44911573e-06,6.9872065e-06,1.27230022e-05,1.96272984e-05,2.89056659e-05,4.23275994e-05
4.45,1.4441356e-06,6.9220287e-06,1.25611326e-05,1.93163651e-05,2.83445549e-05,4.13094861e-05
4.5,1.43927456e-06,6.85858393e-06,1.2404186e-05,1.90163124e-05,2.78063927e-05,4.03412376e-05
4.55,1.43452852e-06,6.79680438e-06,1.22519421e-05,1.87265816e-05,2.72898074e-05,3.94193091e-05
4.6,1.42989358e-06,6.73662573e-06,1.21041936e-05,1.84466514e-05,2.67935341e-05,3.85404815e-05
4.65,1.42536602e-06,6.67798694e-06,1.19607452e-05,1.81760349e-05,2.63164044e-05,3.77018251e-05
4.7,1.42094227e-06,6.62083003e-06,1.18214128e-05,1.79142772e-05,2.58573374e-05,3.6900668e-05
4.75,1.41661893e-06,6.56509989e-06,1.16860227e-05,1.76609522e-05,2.5415332e-05,3.61345685e-05
4.8,1.41239271e-06,6.51074413e-06,1.15544107e-05,1.7415661e-05,2.49894592e-05,3.54012912e-05
4.85,1.40826052e-06,6.45771286e-06,1.14264217e-05,1.71780291e-05,2.45788564e-05,3.46987854e-05
4.9,1.40421934e-06,6.40595863e-06,1.13019091e-05,1.69477054e-05,2.41827211e-05,3.4025167e-05
4.95,1.40026631e-06,6.35543618e-06,1.1180734e-05,1.67243594e-05,2.3800306e-05,3.33787017e-05
5.0,1.39639868e-06,6.3061024e-06,1.10627648e-05,1.65076808e-05,2.34309142e-05,3.27577907e-05
5.05,1.39261382e-06,6.25791616e-06,1.09478768e-05,1.6297377e-05,2.30738953e-05,3.21609576e-05
5.1,1.38890919e-06,6.21083821e-06,1.08359517e-05,1.60931727e-05,2.27286414e-05,3.15868373e-05
5.15,1.38528236e-06,6.16483106e-06,1.07268772e-05,1.58948079e-05,2.23945837e-05,3.10341653e-05
5.2,1.38173101e-06,6.11985892e-06,1.06205466e-05,1.57020375e-05,2.20711895e-05,3.05017691e-05
5.25,1.37825288e-06,6.07588755e-06,1.05168585e-05,1.55146299e-05,2.17579595e-05,2.99885598e-05
5.3,1.37484582e-06,6.03288423e-06,1.04157165e-05,1.53323659e-05,2.14544251e-05,2.9493525e-05
5.35,1.37150776e-06,5.99081763e-06,1.03170286e-05,1.51550385e-05,2.11601459e-05,2.90157218e-05
5.4,1.36823671e-06,5.94965778e-06,1.02207076e-05,1.49824515e-05,2.0874708e-05,2.85542717e-05
5.45,1.36503075e-06,5.90937597e-06,1.01266701e-05,1.4814419e-05,2.05977218e-05,2.81083546e-05
5.5,1.36188803e-06,5.86994469e-06,1.00348367e-05,1.46507648e-05,2.03288204e-05,2.76772043e-05
5.55,1.35880678e-06,5.83133755e-06,9.94513164e-06,1.44913218e-05,2.00676579e-05,2.72601042e-05
5.6,1.35578529e-06,5.79352928e-06,9.85748259e-06,1.43359312e-05,1.98139079e-05,2.68563833e-05
5.65,1.3528219e-06,5.75649561e-06,9.77182049e-06,1.41844421e-05,1.9567262e-05,2.64654127e-05
5.7,1.34991503e-06,5.72021325e-06,9.68807937e-06,1.40367112e-05,1.93274292e-05,2.60866024e-05
5.75,1.34706314e-06,5.68465983e-06,9.60619614e-06,1.38926022e-05,1.90941337e-05,2.57193983e-05
5.8,1.34426476e-06,5.64981386e-06,9.52611046e-06,1.37519851e-05,1.88671151e-05,2.53632794e-05
5.85,1.34151845e-06,5.6156547e-06,9.44776461e-06,1.36147364e-05,1.86461261e-05,2.50177558e-05
5.9,1.33882284e-06,5.5821625e-06,9.37110329e-06,1.34807381e-05,1.84309328e-05,2.46823659e-05
5.95,1.3361766e-06,5.54931816e-06,9.29607356e-06,1.33498781e-05,1.82213132e-05,2.43566747e-05
6.0,1.33357845e-06,5.51710331e-06,9.22262468e-06,1.3222049e-05,1.80170564e-05,2.40402721e-05
6.05,1.33102715e-06,5.48550027e-06,9.150708e-06,1.30971484e-05,1.78179624e-05,2.37327706e-05
6.1,1.3285215e-06,5.45449201e-06,9.08027686e-06,1.29750788e-05,1.76238408e-05,2.34338042e-05
6.15,1.32606034e-06,5.42406214e-06,9.01128646e-06,1.28557466e-05,1.74345108e-05,2.31430271e-05
6.2,1.32364255e-06,5.39419486e-06,8.94369384e-06,1.27390626e-05,1.72498001e-05,2.28601117e-05
6.25,1.32126705e-06,5.36487492e-06,8.87745769e-06,1.26249414e-05,1.7069545e-05,2.2584748e-05
6.3,1.31893279e-06,5.33608766e-06,8.81253836e-06,1.25133011e-05,1.68935892e-05,2.23166421e-05
6.35,1.31663876e-06,5.30781889e-06,8.7488977e-06,1.24040635e-05,1.67217837e-05,2.20555156e-05
6.4,1.31438397e-06,5.28005496e-06,8.68649906e-06,1.22971535e-05,1.65539867e-05,2.18011039e-05
6.45,1.31216748e-06,5.25278267e-06,8.62530715e-06,1.21924994e-05,1.63900625e-05,2.15531561e-05
6.5,1.30998837e-06,5.22598929e-06,8.56528804e-06,1.20900321e-05,1.62298818e-05,2.13114335e-05
6.55,1.30784575e-06,5.19966252e-06,8.50640905e-06,1.19896855e-05,1.60733208e-05,2.10757095e-05
6.6,1.30573874e-06,5.17379047e-06,8.4486387e-06,1.18913961e-05,1.59202614e-05,2.08457681e-05
