vds,vb1,vb2,vb3,vb4,vb5,vb6
0.0,3.23979557e-05,8.37266351e-05,0.000124254847,0.000152588298,0.000177166843,0.000191088761
0.05,2.72852759e-05,7.82685163e-05,0.00011859312,0.000147025426,0.000171778349,0.000186083213
0.1,2.23113622e-05,7.29547984e-05,0.000113077264,0.000141594883,0.000166506775,0.000181175466
0.15,1.75032556e-05,6.77810689e-05,0.000107702774,0.00013629294,0.000161349156,0.000176363307
0.2,1.29446609e-05,6.27429003e-05,0.000102465044,0.000131115819,0.000156302505,0.000171644521
0.25,8.88466324e-06,5.78359511e-05,9.73592841e-05,0.000126059599,0.000151363752,0.000167016852
0.3,5.84309738e-06,5.30562182e-05,9.23805446e-05,0.000121120183,0.000146529692,0.000162477968
0.35,4.10886529e-06,4.84003774e-05,8.75238171e-05,0.000116293309,0.000141796973,0.00015802544
0.4,3.23379928e-06,4.38661612e-05,8.27841961e-05,0.000111574607,0.000137162095,0.000153656736
0.45,2.74016591e-06,3.9452809e-05,7.81570538e-05,0.00010695969,0.000132621452,0.000149369219
0.5,2.41848078e-06,3.51617751e-05,7.36381936e-05,0.000102444267,0.000128171374,0.000145160173
0.55,2.18804478e-06,3.099818e-05,6.92239556e-05,9.8024256e-05,0.0001238082,0.000141026823
0.6,2.01315186e-06,2.69741856e-05,6.49112514e-05,9.36958851e-05,0.000119528343,0.000136966372
0.65,1.87527072e-06,2.31170023e-05,6.06975109e-05,8.94557815e-05,0.000115328371,0.000132976045
0.7,1.76357188e-06,1.94857399e-05,5.65805206e-05,8.5301025e-05,0.000111205066,0.000129053123
0.75,1.67118749e-06,1.61921485e-05,5.25581222e-05,8.12291711e-05,0.000107155494,0.000125194992
0.8,1.59350401e-06,1.33817106e-05,4.86277068e-05,7.72382342e-05,0.000103177043,0.000121399181
0.85,1.5272877e-06,1.11391161e-05,4.47853967e-05,7.33266278e-05,9.92674641e-05,0.000117663398
0.9,1.47019633e-06,9.42580795e-06,4.1024766e-05,6.94930546e-05,9.54248842e-05,0.000113985557
0.95,1.42048801e-06,8.13121574e-06,3.73350879e-05,6.5736335e-05,9.16478051e-05,0.000110363811
1.0,1.37683874e-06,7.14294329e-06,3.3700059e-05,6.20551532e-05,8.79350836e-05,0.000106796562
1.05,1.33822337e-06,6.37406211e-06,3.01013292e-05,5.84476796e-05,8.42858916e-05,0.00010328247
1.1,1.30383543e-06,5.76335412e-06,2.65374063e-05,5.49110001e-05,8.0699654e-05,9.98204606e-05
1.15,1.2730316e-06,5.26870172e-06,2.30640948e-05,5.14402363e-05,7.71759629e-05,9.6409709e-05
1.2,1.24529233e-06,4.86097523e-06,1.98186885e-05,4.80271935e-05,7.37144607e-05,9.30496301e-05
1.25,1.22019345e-06,4.51969679e-06,1.69616773e-05,4.46583923e-05,7.03146831e-05,8.97398513e-05
1.3,1.19738522e-06,4.23018283e-06,1.45783218e-05,4.13126937e-05,6.69758446e-05,8.64801785e-05
1.35,1.1765767e-06,3.98169056e-06,1.26536388e-05,3.7960123e-05,6.36965344e-05,8.32705527e-05
1.4,1.15752392e-06,3.76620846e-06,1.1116807e-05,3.45670065e-05,6.04742754e-05,8.01109948e-05
1.45,1.14002074e-06,3.57765531e-06,9.88643703e-06,3.11167273e-05,5.73048675e-05,7.70015359e-05
1.5,1.12389186e-06,3.41134001e-06,8.89177014e-06,2.76482787e-05,5.41814025e-05,7.39421292e-05
1.55,1.10898721e-06,3.2635905e-06,8.07748181e-06,2.42814787e-05,5.1092823e-05,7.09325355e-05
1.6,1.09517765e-06,3.13149398e-06,7.40205357e-06,2.11792195e-05,4.80219713e-05,6.79721684e-05
1.65,1.0823514e-06,3.01271197e-06,6.8346908e-06,1.8465185e-05,4.49434906e-05,6.50598808e-05
1.7,1.07041123e-06,2.90534648e-06,6.35250372e-06,1.61785897e-05,4.1823166e-05,6.21936586e-05
1.75,1.05927221e-06,2.80784156e-06,5.93833026e-06,1.42904515e-05,3.86228445e-05,5.93701755e-05
1.8,1.0488598e-06,2.71891009e-06,5.57915375e-06,1.2740895e-05,3.53175168e-05,5.65841372e-05
1.85,1.03910832e-06,2.63747837e-06,5.2649773e-06,1.14658615e-05,3.19262062e-05,5.38273325e-05
1.9,1.02995969e-06,2.56264386e-06,4.98802627e-06,1.04090137e-05,2.85376842e-05,5.10873175e-05
1.95,1.02136235e-06,2.49364255e-06,4.74218051e-06,9.52473742e-06,2.52955126e-05,4.83457969e-05
2.0,1.01327038e-06,2.42982345e-06,4.5225667e-06,8.7773996e-06,2.23391371e-05,4.55772001e-05
2.05,1.00564275e-06,2.37062853e-06,4.32526242e-06,8.13952739e-06,1.97503877e-05,4.27489977e-05
2.1,9.98442692e-07,2.31557673e-06,4.14707895e-06,7.58997112e-06,1.75437974e-05,3.98270423e-05
2.15,9.91637168e-07,2.2642512e-06,3.98539984e-06,7.11237486e-06,1.56887389e-05,3.67901307e-05
2.2,9.851964e-07,2.21628896e-06,3.83805973e-06,6.69399332e-06,1.41354952e-05,3.3653395e-05
2.25,9.79093489e-07,2.17137249e-06,3.70325223e-06,6.32480476e-06,1.28321473e-05,3.04867615e-05
2.3,9.7330407e-07,2.12922285e-06,3.57945929e-06,5.99685333e-06,1.17322962e-05,2.7405814e-05
2.35,9.67806026e-07,2.08959402e-06,3.46539637e-06,5.70376254e-06,1.0797315e-05,2.45316983e-05
2.4,9.62579235e-07,2.05226816e-06,3.3599696e-06,5.440374e-06,9.99610431e-06,2.19491931e-05
2.45,9.57605353e-07,2.01705177e-06,3.26224192e-06,5.20247741e-06,9.30398245e-06,1.96912971e-05
2.5,9.52867619e-07,1.9837723e-06,3.17140617e-06,4.98660723e-06,8.701439e-06,1.77493321e-05
2.55,9.48350692e-07,1.95227547e-06,3.08676345e-06,4.78988824e-06,8.17302478e-06,1.60915042e-05
2.6,9.44040503e-07,1.92242288e-06,3.00770571e-06,4.60991718e-06,7.70644651e-06,1.46779464e-05
2.65,9.3992413e-07,1.89409004e-06,2.93370149e-06,4.44467118e-06,7.29185769e-06,1.34693938e-05
2.7,9.35989678e-07,1.86716465e-06,2.86428432e-06,4.29243647e-06,6.92131315e-06,1.2430993e-05
2.75,9.32226185e-07,1.84154519e-06,2.79904312e-06,4.15175219e-06,6.58835248e-06,1.15333556e-05
2.8,9.28623529e-07,1.81713961e-06,2.73761425e-06,4.02136597e-06,6.28768205e-06,1.075233e-05
2.85,9.25172355e-07,1.79386427e-06,2.67967489e-06,3.9001984e-06,6.01493165e-06,1.00683003e-05
2.9,9.21863996e-07,1.77164301e-06,2.62493751e-06,3.78731442e-06,5.76646724e-06,9.46539573e-06
2.95,9.1869042e-07,1.75040635e-06,2.57314516e-06,3.68190022e-06,5.53924606e-06,8.93076575e-06
3.0,9.15644165e-07,1.73009072e-06,2.52406756e-06,3.58324437e-06,5.3307037e-06,8.45396929e-06
3.05,9.12718298e-07,1.71063792e-06,2.47749771e-06,3.49072228e-06,5.13866549e-06,8.02648071e-06
3.1,9.09906361e-07,1.69199451e-06,2.43324905e-06,3.40378349e-06,4.96127645e-06,7.64129788e-06
3.15,9.07202339e-07,1.67411134e-06,2.39115301e-06,3.32194105e-06,4.79694557e-06,7.29263427e-06
3.2,9.04600615e-07,1.65694317e-06,2.35105687e-06,3.24476265e-06,4.64430112e-06,6.97567769e-06
3.25,9.02095945e-07,1.64044823e-06,2.31282199e-06,3.17186324e-06,4.50215467e-06,6.68640122e-06
3.3,8.99683425e-07,1.62458795e-06,2.27632218e-06,3.10289877e-06,4.36947179e-06,6.42141445e-06
3.35,8.9735846e-07,1.60932662e-06,2.24144239e-06,3.03756089e-06,4.24534819e-06,6.17784606e-06
3.4,8.95116748e-07,1.59463115e-06,2.20807746e-06,2.97557248e-06,4.12899007e-06,5.95325064e-06
3.45,8.92954251e-07,1.58047083e-06,2.17613111e-06,2.91668381e-06,4.01969794e-06,5.74553429e-06
3.5,8.90867178e-07,1.56681713e-06,2.14551502e-06,2.86066924e-06,3.91685311e-06,5.55289491e-06
3.55,8.88851964e-07,1.55364348e-06,2.11614805e-06,2.80732439e-06,3.81990646e-06,5.37377401e-06
3.6,8.86905258e-07,1.54092515e-06,2.08795546e-06,2.75646374e-06,3.72836901e-06,5.20681757e-06
3.65,8.85023902e-07,1.52863905e-06,2.06086837e-06,2.70791848e-06,3.64180398e-06,5.05084405e-06
3.7,8.83204921e-07,1.51676363e-06,2.03482316e-06,2.6615347e-06,3.55982002e-06,4.90481819e-06
3.75,8.8144551e-07,1.50527873e-06,2.00976096e-06,2.61717175e-06,3.48206552e-06,4.76782932e-06
3.8,8.79743018e-07,1.49416548e-06,1.98562728e-06,2.57470089e-06,3.40822373e-06,4.63907339e-06
3.85,8.78094943e-07,1.48340622e-06,1.96237154e-06,2.53400406e-06,3.33800853e-06,4.51783798e-06
3.9,8.76498918e-07,1.47298436e-06,1.93994676e-06,2.49497275e-06,3.27116087e-06,4.40348974e-06
3.95,8.74952704e-07,1.46288434e-06,1.91830925e-06,2.45750712e-06,3.20744568e-06,4.29546383e-06
4.0,8.7345418e-07,1.45309152e-06,1.89741833e-06,2.42151509e-06,3.14664911e-06,4.19325499e-06
4.05,8.72001338e-07,1.44359215e-06,1.87723605e-06,2.38691168e-06,3.08857625e-06,4.09640991e-06
4.1,8.70592271e-07,1.43437327e-06,1.857727e-06,2.35361826e-06,3.03304908e-06,4.00452085e-06
4.15,8.69225172e-07,1.42542266e-06,1.83885807e-06,2.32156204e-06,2.97990468e-06,3.91722001e-06
4.2,8.67898323e-07,1.41672882e-06,1.8205983e-06,2.29067548e-06,2.92899368e-06,3.83417488e-06
4.25,8.66610092e-07,1.40828088e-06,1.80291866e-06,2.26089587e-06,2.88017886e-06,3.75508406e-06
4.3,8.65358929e-07,1.40006856e-06,1.78579197e-06,2.2321649e-06,2.833334e-06,3.67967377e-06
4.35,8.64143358e-07,1.39208215e-06,1.76919269e-06,2.20442826e-06,2.78834274e-06,3.60769477e-06
4.4,8.62961973e-07,1.38431247e-06,1.75309684e-06,2.17763533e-06,2.74509769e-06,3.5389197e-06
4.45,8.61813435e-07,1.37675083e-06,1.73748188e-06,2.15173886e-06,2.70349956e-06,3.4731407e-06
4.5,8.60696469e-07,1.36938898e-06,1.72232656e-06,2.12669469e-06,2.66345641e-06,3.41016744e-06
4.55,8.59609857e-07,1.3622191e-06,1.70761091e-06,2.10246152e-06,2.62488302e-06,3.34982527e-06
4.6,8.58552439e-07,1.35523378e-06,1.69331606e-06,2.07900067e-06,2.58770025e-06,3.29195367e-06
4.65,8.57523106e-07,1.34842598e-06,1.67942423e-06,2.05627589e-06,2.55183452e-06,3.23640483e-06
4.7,8.56520798e-07,1.34178901e-06,1.66591862e-06,2.03425315e-06,2.51721737e-06,3.18304249e-06
4.75,8.55544504e-07,1.3353165e-06,1.65278334e-06,2.01290049e-06,2.48378496e-06,3.13174075e-06
4.8,8.54593254e-07,1.32900242e-06,1.64000339e-06,1.99218787e-06,2.45147774e-06,3.08238319e-06
4.85,8.53666122e-07,1.322841e-06,1.62756453e-06,1.972087e-06,2.42024008e-06,3.03486194e-06
4.9,8.52762221e-07,1.31682675e-06,1.61545331e-06,1.95257127e-06,2.39001995e-06,2.98907694e-06
4.95,8.51880702e-07,1.31095445e-06,1.60365695e-06,1.93361557e-06,2.36076865e-06,2.94493527e-06
5.0,8.51020751e-07,1.30521911e-06,1.59216335e-06,1.91519621e-06,2.33244053e-06,2.90235047e-06
5.05,8.50181585e-07,1.29961598e-06,1.58096101e-06,1.89729084e-06,2.30499276e-06,2.86124206e-06
5.1,8.49362458e-07,1.29414051e-06,1.57003902e-06,1.87987832e-06,2.27838515e-06,2.82153498e-06
5.15,8.4856265e-07,1.28878837e-06,1.55938699e-06,1.86293866e-06,2.25257989e-06,2.78315918e-06
5.2,8.47781471e-07,1.28355542e-06,1.54899505e-06,1.84645297e-06,2.22754144e-06,2.7460492e-06
5.25,8.47018257e-07,1.2784377e-06,1.53885381e-06,1.83040331e-06,2.20323632e-06,2.71014378e-06
5.3,8.46272373e-07,1.27343141e-06,1.52895433e-06,1.81477272e-06,2.17963298e-06,2.67538559e-06
5.35,8.45543205e-07,1.26853293e-06,1.51928808e-06,1.79954509e-06,2.15670166e-06,2.64172085e-06
5.4,8.44830165e-07,1.26373879e-06,1.50984693e-06,1.78470515e-06,2.13441429e-06,2.6090991e-06
5.45,8.44132685e-07,1.25904566e-06,1.50062315e-06,1.77023838e-06,2.11274431e-06,2.57747298e-06
5.5,8.43450219e-07,1.25445035e-06,1.49160933e-06,1.75613099e-06,2.09166666e-06,2.54679791e-06
5.55,8.42782241e-07,1.24994982e-06,1.4827984e-06,1.74236986e-06,2.07115758e-06,2.51703198e-06
5.6,8.42128246e-07,1.24554112e-06,1.47418362e-06,1.72894252e-06,2.05119462e-06,2.48813572e-06
5.65,8.41487744e-07,1.24122144e-06,1.46575855e-06,1.71583709e-06,2.03175646e-06,2.4600719e-06
5.7,8.40860264e-07,1.23698809e-06,1.457517e-06,1.70304225e-06,2.01282293e-06,2.43280542e-06
5.75,8.40245352e-07,1.23283847e-06,1.44945309e-06,1.6905472e-06,1.99437487e-06,2.40630313e-06
5.8,8.39642569e-07,1.22877009e-06,1.44156114e-06,1.67834167e-06,1.97639409e-06,2.38053371e-06
5.85,8.39051493e-07,1.22478056e-06,1.43383577e-06,1.66641583e-06,1.9588633e-06,2.35546755e-06
5.9,8.38471713e-07,1.22086756e-06,1.42627176e-06,1.65476031e-06,1.94176608e-06,2.33107662e-06
5.95,8.37902834e-07,1.21702889e-06,1.41886417e-06,1.64336616e-06,1.9250868e-06,2.30733438e-06
6.0,8.37344474e-07,1.21326242e-06,1.4116082e-06,1.63222481e-06,1.90881058e-06,2.28421569e-06
6.05,8.36796264e-07,1.20956609e-06,1.4044993e-06,1.62132808e-06,1.89292326e-06,2.26169669e-06
6.1,8.36257845e-07,1.20593792e-06,1.39753307e-06,1.61066813e-06,1.87741134e-06,2.23975475e-06
6.15,8.35728872e-07,1.20237602e-06,1.39070528e-06,1.60023747e-06,1.86226193e-06,2.21836838e-06
6.2,8.3520901e-07,1.19887854e-06,1.38401189e-06,1.59002892e-06,1.84746277e-06,2.19751716e-06
6.25,8.34697934e-07,1.19544373e-06,1.37744899e-06,1.58003561e-06,1.83300211e-06,2.17718168e-06
6.3,8.3419533e-07,1.19206987e-06,1.37101285e-06,1.57025092e-06,1.81886877e-06,2.15734346e-06
6.35,8.33700892e-07,1.18875532e-06,1.36469986e-06,1.56066855e-06,1.80505204e-06,2.13798492e-06
6.4,8.33214326e-07,1.18549849e-06,1.35850655e-06,1.55128241e-06,1.79154168e-06,2.1190893e-06
6.45,8.32735344e-07,1.18229785e-06,1.35242959e-06,1.54208669e-06,1.77832791e-06,2.10064065e-06
6.5,8.32263667e-07,1.17915192e-06,1.34646576e-06,1.53307578e-06,1.76540135e-06,2.08262374e-06
6.55,8.31799027e-07,1.17605927e-06,1.34061195e-06,1.52424432e-06,1.75275303e-06,2.06502403e-06
6.6,8.31341161e-07,1.17301852e-06,1.3348652e-06,1.51558713e-06,1.74037437e-06,2.04782767e-06
