vds,vb1,vb2,vb3,vb4,vb5,vb6
0.0,7.42888563e-05,0.000246543018,0.000376618661,0.000471149575,0.000538722991,0.000594381805
0.05,5.76244756e-05,0.000227664057,0.000356842539,0.000451596948,0.000520126367,0.000576896468
0.1,4.17410196e-05,0.000209411007,0.000337685012,0.000432599383,0.000502002072,0.000559808229
0.15,2.71894647e-05,0.000191760514,0.000319123312,0.000414138544,0.000484336302,0.00054310681
0.2,1.57367868e-05,0.000174690341,0.000301135025,0.000396196366,0.000467115465,0.000526782091
0.25,9.47944372e-06,0.000158179935,0.000283697956,0.000378754888,0.000450326058,0.000510824032
0.3,6.91513482e-06,0.000142211447,0.000266790226,0.0003617962,0.000433954594,0.000495222611
0.35,5.7206385e-06,0.000126771252,0.000250390519,0.000345302504,0.000417987584,0.000479967793
0.4,5.01729963e-06,0.000111852436,0.000234478369,0.000329256262,0.000402411575,0.000465049521
0.45,4.53887259e-06,9.74598284e-05,0.000219034379,0.000313640384,0.000387213227,0.000450457739
0.5,4.18664513e-06,8.36220682e-05,0.000204040252,0.000298438428,0.000372379426,0.000436182436
0.55,3.91462832e-06,7.04225521e-05,0.000189478547,0.000283634764,0.000357897406,0.000422213703
0.6,3.69764979e-06,5.80722064e-05,0.000175331992,0.000269214671,0.000343754863,0.000408541806
0.65,3.52040548e-06,4.70102861e-05,0.000161582135,0.000255164346,0.000329940065,0.000395157257
0.7,3.3729119e-06,3.78157925e-05,0.000148206888,0.000241470778,0.000316441931,0.000382050888
0.75,3.24832219e-06,3.07583914e-05,0.000135176258,0.000228121475,0.000303250071,0.000369213912
0.8,3.14176073e-06,2.55800386e-05,0.000122445502,0.000215103951,0.000290354794,0.000356637981
0.85,3.0496514e-06,2.17971668e-05,0.000109946929,0.000202404901,0.000277747055,0.000344315221
0.9,2.96930727e-06,1.89830025e-05,9.7591556e-05,0.00019000885,0.000265418351,0.000332238259
0.95,2.89866841e-06,1.68357186e-05,8.53199045e-05,0.000177895963,0.000253360535,0.000320400224
1.0,2.83612816e-06,1.51553033e-05,7.32582727e-05,0.000166038468,0.000241565538,0.00030879473
1.05,2.78041457e-06,1.38099244e-05,6.18889678e-05,0.000154394864,0.000230024953,0.000297415835
1.1,2.73050739e-06,1.2711216e-05,5.18894417e-05,0.000142901143,0.000218729414,0.000286257972
1.15,2.68557873e-06,1.17985154e-05,4.3668395e-05,0.00013145982,0.000207667661,0.000275315848
1.2,2.64494975e-06,1.10291246e-05,3.71850797e-05,0.00011993464,0.000196825109,0.000264584303
1.25,2.60805862e-06,1.03722671e-05,3.21434314e-05,0.000108177348,0.000186181605,0.000254058113
1.3,2.57443637e-06,9.80526996e-06,2.82075929e-05,9.61339316e-05,0.000175707928,0.000243731717
1.35,2.54368853e-06,9.31109858e-06,2.50961273e-05,8.40286407e-05,0.000165360393,0.000233598836
1.4,2.51548095e-06,8.87672598e-06,2.25975503e-05,7.24376052e-05,0.000155073088,0.000223651917
1.45,2.4895287e-06,8.49203098e-06,2.05588872e-05,6.20348115e-05,0.000144748455,0.000213881329
1.5,2.46558741e-06,8.14903726e-06,1.88702978e-05,5.32209292e-05,0.000134251543,0.000204274151
1.55,2.44344628e-06,7.8413778e-06,1.74524007e-05,4.60214042e-05,0.000123424273,0.000194812337
1.6,2.42292257e-06,7.56391094e-06,1.62471052e-05,4.02315898e-05,0.000112150437,0.000185469945
1.65,2.40385709e-06,7.31244078e-06,1.52112676e-05,3.55805104e-05,0.000100488052,0.000176208999
1.7,2.38611055e-06,7.08351031e-06,1.4312353e-05,3.18178881e-05,8.87915488e-05,0.000166973614
1.75,2.36956055e-06,6.87424641e-06,1.35254599e-05,2.87410429e-05,7.76509809e-05,0.000157682615
1.8,2.35409911e-06,6.682242e-06,1.283126e-05,2.61945173e-05,6.76241605e-05,0.000148223003
1.85,2.33963066e-06,6.50546566e-06,1.22145533e-05,2.40614295e-05,5.90055323e-05,0.00013845203
1.9,2.32607025e-06,6.3421913e-06,1.1663241e-05,2.22541861e-05,5.18074464e-05,0.000128224675
1.95,2.31334218e-06,6.19094309e-06,1.11675847e-05,2.07068102e-05,4.58738998e-05,0.000117467024
2.0,2.30137877e-06,6.05045181e-06,1.07196653e-05,1.93691526e-05,4.09929591e-05,0.000106287327
2.05,2.2901193e-06,5.91962006e-06,1.03129819e-05,1.82026788e-05,3.69600122e-05,9.50432343e-05
2.1,2.2795092e-06,5.79749417e-06,9.94215138e-06,1.71774376e-05,3.36015494e-05,8.42577238e-05
2.15,2.26949925e-06,5.68324154e-06,9.6026801e-06,1.62698827e-05,3.07787169e-05,7.44104454e-05
2.2,2.26004498e-06,5.576132e-06,9.29078915e-06,1.5461299e-05,2.83831544e-05,6.57746406e-05
2.25,2.25110608e-06,5.47552263e-06,9.00327877e-06,1.47366548e-05,2.63310117e-05,5.83998027e-05
2.3,2.24264595e-06,5.38084509e-06,8.73742223e-06,1.40837586e-05,2.45573816e-05,5.21881547e-05
2.35,2.23463126e-06,5.29159516e-06,8.49088213e-06,1.34926306e-05,2.30117647e-05,4.69789654e-05
2.4,2.22703165e-06,5.20732398e-06,8.2616437e-06,1.29550322e-05,2.16545753e-05,4.26029566e-05
2.45,2.21981936e-06,5.12763063e-06,8.04796135e-06,1.24641074e-05,2.04545132e-05,3.89076811e-05
2.5,2.21296898e-06,5.05215595e-06,7.84831533e-06,1.20141082e-05,1.9386604e-05,3.57653796e-05
2.55,2.20645723e-06,4.98057724e-06,7.6613766e-06,1.16001827e-05,1.84307392e-05,3.30726252e-05
2.6,2.2002627e-06,4.91260376e-06,7.48597791e-06,1.12182086e-05,1.7570585e-05,3.07469755e-05
2.65,2.1943657e-06,4.84797286e-06,7.32109004e-06,1.08646626e-05,1.6792761e-05,2.8723042e-05
2.7,2.18874807e-06,4.78644671e-06,7.16580206e-06,1.05365161e-05,1.60862175e-05,2.69489162e-05
2.75,2.18339305e-06,4.72780942e-06,7.01930488e-06,1.02311527e-05,1.54417606e-05,2.53832163e-05
2.8,2.17828516e-06,4.67186455e-06,6.88087746e-06,9.94630033e-06,1.48516853e-05,2.39927533e-05
2.85,2.17341004e-06,4.61843302e-06,6.74987516e-06,9.67997707e-06,1.43094914e-05,2.27507226e-05
2.9,2.16875442e-06,4.56735122e-06,6.62571997e-06,9.43044664e-06,1.38096602e-05,2.16353163e-05
2.95,2.16430593e-06,4.51846935e-06,6.50789211e-06,9.19618167e-06,1.33474786e-05,2.06286597e-05
3.0,2.16005311e-06,4.47165005e-06,6.3959229e-06,8.97583339e-06,1.29188994e-05,1.97159943e-05
3.05,2.15598529e-06,4.42676708e-06,6.28938866e-06,8.76820642e-06,1.25204289e-05,1.88850484e-05
3.1,2.15209251e-06,4.38370427e-06,6.18790546e-06,8.5722377e-06,1.21490365e-05,1.81255483e-05
3.15,2.14836549e-06,4.3423545e-06,6.09112456e-06,8.38697876e-06,1.18020812e-05,1.74288378e-05
3.2,2.14479558e-06,4.30261885e-06,5.99872849e-06,8.21158073e-06,1.14772514e-05,1.67875785e-05
3.25,2.14137466e-06,4.26440586e-06,5.91042763e-06,8.04528173e-06,1.11725159e-05,1.61955129e-05
3.3,2.13809516e-06,4.22763078e-06,5.82595721e-06,7.887396e-06,1.08860824e-05,1.56472764e-05
3.35,2.13494997e-06,4.19221504e-06,5.74507477e-06,7.73730466e-06,1.06163642e-05,1.51382455e-05
3.4,2.13193243e-06,4.15808564e-06,5.66755777e-06,7.59444783e-06,1.03619516e-05,1.46644164e-05
3.45,2.12903629e-06,4.12517468e-06,5.59320169e-06,7.45831776e-06,1.01215877e-05,1.42223056e-05
3.5,2.12625568e-06,4.09341896e-06,5.52181816e-06,7.32845292e-06,9.894149e-06,1.38088693e-05
3.55,2.12358507e-06,4.06275954e-06,5.45323346e-06,7.2044329e-06,9.67862768e-06,1.34214369e-05
3.6,2.12101927e-06,4.03314138e-06,5.3872871e-06,7.08587392e-06,9.47411756e-06,1.30576559e-05
3.65,2.11855337e-06,4.00451308e-06,5.3238306e-06,6.97242495e-06,9.27980148e-06,1.27154467e-05
3.7,2.11618277e-06,3.97682652e-06,5.26272639e-06,6.86376433e-06,9.09494076e-06,1.23929644e-05
3.75,2.1139031e-06,3.95003665e-06,5.20384681e-06,6.75959672e-06,8.91886603e-06,1.20885667e-05
3.8,2.11171025e-06,3.92410123e-06,5.14707324e-06,6.65965051e-06,8.75096932e-06,1.18007873e-05
3.85,2.10960035e-06,3.89898061e-06,5.09229536e-06,6.56367547e-06,8.59069723e-06,1.15283129e-05
3.9,2.1075697e-06,3.87463755e-06,5.03941037e-06,6.47144071e-06,8.43754495e-06,1.12699642e-05
3.95,2.10561483e-06,3.85103703e-06,4.98832241e-06,6.38273286e-06,8.29105107e-06,1.10246792e-05
4.0,2.10373245e-06,3.82814609e-06,4.93894198e-06,6.2973544e-06,8.15079304e-06,1.07914987e-05
4.05,2.10191943e-06,3.80593368e-06,4.89118539e-06,6.21512227e-06,8.01638318e-06,1.0569555e-05
4.1,2.10017281e-06,3.78437053e-06,4.84497435e-06,6.13586657e-06,7.88746517e-06,1.03580606e-05
4.15,2.09848978e-06,3.76342902e-06,4.80023549e-06,6.05942936e-06,7.76371095e-06,1.01562997e-05
4.2,2.09686768e-06,3.74308305e-06,4.75690003e-06,5.9856637e-06,7.64481799e-06,9.96361975e-06
4.25,2.09530396e-06,3.72330798e-06,4.71490339e-06,5.91443263e-06,7.53050687e-06,9.77942528e-06
4.3,2.09379621e-06,3.70408048e-06,4.67418488e-06,5.8456084e-06,7.42051911e-06,9.60317131e-06
4.35,2.09234214e-06,3.68537849e-06,4.63468743e-06,5.77907171e-06,7.31461526e-06,9.43435838e-06
4.4,2.09093956e-06,3.66718109e-06,4.59635734e-06,5.71471099e-06,7.2125732e-06,9.27252786e-06
4.45,2.0895864e-06,3.64946845e-06,4.55914397e-06,5.65242181e-06,7.11418659e-06,9.11725789e-06
4.5,2.08828066e-06,3.63222179e-06,4.52299959e-06,5.59210632e-06,7.0192635e-06,8.96815978e-06
4.55,2.08702046e-06,3.61542324e-06,4.48787916e-06,5.53367274e-06,6.92762519e-06,8.82487485e-06
4.6,2.08580399e-06,3.59905586e-06,4.45374012e-06,5.47703489e-06,6.83910501e-06,8.68707157e-06
4.65,2.08462953e-06,3.58310353e-06,4.42054226e-06,5.4221118e-06,6.75354737e-06,8.55444309e-06
4.7,2.08349542e-06,3.56755093e-06,4.38824751e-06,5.36882727e-06,6.67080687e-06,8.42670497e-06
4.75,2.0824001e-06,3.55238348e-06,4.35681986e-06,5.31710959e-06,6.59074746e-06,8.30359317e-06
4.8,2.08134206e-06,3.53758728e-06,4.32622516e-06,5.26689117e-06,6.51324174e-06,8.18486233e-06
4.85,2.08031986e-06,3.52314911e-06,4.29643108e-06,5.21810825e-06,6.43817025e-06,8.07028407e-06
4.9,2.07933212e-06,3.50905636e-06,4.26740689e-06,5.17070068e-06,6.36542088e-06,7.95964561e-06
4.95,2.07837752e-06,3.49529698e-06,4.23912347e-06,5.12461161e-06,6.29488832e-06,7.85274846e-06
5.0,2.07745479e-06,3.48185951e-06,4.21155311e-06,5.07978731e-06,6.22647355e-06,7.74940724e-06
5.05,2.07656272e-06,3.46873297e-06,4.1846695e-06,5.03617692e-06,6.16008338e-06,7.6494486e-06
5.1,2.07570014e-06,3.45590688e-06,4.1584476e-06,4.99373233e-06,6.09563003e-06,7.55271033e-06
5.15,2.07486594e-06,3.44337125e-06,4.13286358e-06,4.95240791e-06,6.03303076e-06,7.45904041e-06
5.2,2.07405905e-06,3.43111648e-06,4.10789475e-06,4.91216041e-06,5.97220748e-06,7.36829629e-06
5.25,2.07327843e-06,3.41913343e-06,4.08351948e-06,4.87294881e-06,5.91308647e-06,7.28034413e-06
5.3,2.07252309e-06,3.40741331e-06,4.05971714e-06,4.83473414e-06,5.85559804e-06,7.19505815e-06
5.35,2.07179209e-06,3.39594774e-06,4.03646808e-06,4.79747939e-06,5.79967631e-06,7.11232007e-06
5.4,2.0710845e-06,3.38472865e-06,4.01375351e-06,4.76114937e-06,5.74525891e-06,7.03201853e-06
5.45,2.07039944e-06,3.37374834e-06,3.9915555e-06,4.7257106e-06,5.69228677e-06,6.95404861e-06
5.5,2.06973606e-06,3.3629994e-06,3.96985691e-06,4.69113122e-06,5.64070389e-06,6.87831137e-06
5.55,2.06909355e-06,3.35247474e-06,3.94864137e-06,4.65738088e-06,5.59045717e-06,6.80471344e-06
5.6,2.06847111e-06,3.34216755e-06,3.9278932e-06,4.62443065e-06,5.54149622e-06,6.73316662e-06
5.65,2.06786799e-06,3.33207127e-06,3.90759741e-06,4.59225296e-06,5.49377315e-06,6.66358754e-06
5.7,2.06728346e-06,3.32217963e-06,3.88773965e-06,4.5608215e-06,5.44724248e-06,6.59589734e-06
5.75,2.06671679e-06,3.31248659e-06,3.86830615e-06,4.53011113e-06,5.40186095e-06,6.53002138e-06
5.8,2.06616732e-06,3.30298634e-06,3.84928374e-06,4.50009789e-06,5.35758738e-06,6.46588893e-06
5.85,2.06563437e-06,3.29367329e-06,3.83065978e-06,4.47075882e-06,5.31438258e-06,6.40343293e-06
5.9,2.06511732e-06,3.28454207e-06,3.81242215e-06,4.44207203e-06,5.2722092e-06,6.3425898e-06
5.95,2.06461555e-06,3.27558751e-06,3.79455923e-06,4.41401653e-06,5.23103165e-06,6.28329915e-06
6.0,2.06412845e-06,3.26680463e-06,3.77705983e-06,4.38657225e-06,5.19081597e-06,6.22550362e-06
6.05,2.06365545e-06,3.25818863e-06,3.75991323e-06,4.35971997e-06,5.15152976e-06,6.16914871e-06
6.1,2.063196e-06,3.24973489e-06,3.74310913e-06,4.33344128e-06,5.11314207e-06,6.11418255e-06
6.15,2.06274955e-06,3.24143896e-06,3.72663761e-06,4.30771854e-06,5.07562335e-06,6.0605558e-06
6.2,2.06231557e-06,3.23329654e-06,3.71048916e-06,4.28253481e-06,5.03894533e-06,6.00822145e-06
6.25,2.06189356e-06,3.22530348e-06,3.6946546e-06,4.25787386e-06,5.00308098e-06,5.95713474e-06
6.3,2.06148303e-06,3.2174558e-06,3.67912511e-06,4.23372011e-06,4.96800445e-06,5.90725296e-06
6.35,2.0610835e-06,3.20974964e-06,3.6638922e-06,4.21005859e-06,4.93369097e-06,5.85853538e-06
6.4,2.06069449e-06,3.20218126e-06,3.64894768e-06,4.18687491e-06,4.90011683e-06,5.81094312e-06
6.45,2.06031557e-06,3.19474707e-06,3.63428368e-06,4.16415528e-06,4.8672593e-06,5.76443905e-06
6.5,2.0599463e-06,3.18744361e-06,3.6198926e-06,4.14188639e-06,4.83509657e-06,5.71898769e-06
6.55,2.05958624e-06,3.1802675e-06,3.60576712e-06,4.12005547e-06,4.80360776e-06,5.67455512e-06
6.6,2.05923498e-06,3.17321551e-06,3.59190015e-06,4.09865023e-06,4.77277279e-06,5.63110887e-06
