vds,vb1,vb2,vb3,vb4,vb5,vb6
0.0,0.000528995827,0.00204758048,0.00320586213,0.00406643028,0.00464979908,0.00502735425
0.05,0.000394603537,0.00188684238,0.00303527272,0.00389638066,0.00448836386,0.0048786107
0.1,0.000267731423,0.0017316435,0.00287018652,0.00373129421,0.00433112821,0.00473329924
0.15,0.000155897988,0.00158176382,0.00271039312,0.00357100121,0.00417796536,0.00459132863
0.2,7.95053506e-05,0.00143699521,0.00255568872,0.00341533675,0.00402875186,0.00445260974
0.25,4.62080069e-05,0.00129714359,0.00240587541,0.00326414002,0.003883367,0.00431705532
0.3,3.35539998e-05,0.00116203296,0.00226076096,0.00311725396,0.00374169258,0.00418457974
0.35,2.74439179e-05,0.00103151232,0.00212015895,0.00297452527,0.00360361266,0.00405509883
0.4,2.37598868e-05,0.000905469394,0.00198388882,0.00283580456,0.00346901364,0.00392852982
0.45,2.12369375e-05,0.000783863671,0.00185177522,0.0027009468,0.00333778443,0.00380479139
0.5,1.93777908e-05,0.000666819558,0.00172364606,0.00256981149,0.00320981665,0.00368380372
0.55,1.79424678e-05,0.000554906928,0.00159932846,0.00244226277,0.00308500493,0.00356548864
0.6,1.67977575e-05,0.000449897764,0.00147864111,0.00231816908,0.0029632471,0.00344976981
0.65,1.58624034e-05,0.000355931993,0.00136138057,0.00219740232,0.00284444441,0.00333657283
0.7,1.50834575e-05,0.000278678638,0.00124729717,0.00207983612,0.00272850148,0.00322582547
0.75,1.44247012e-05,0.000220647153,0.00113605338,0.00196534309,0.00261532623,0.0031174577
0.8,1.38604166e-05,0.000179168989,0.0010271579,0.00185379022,0.00250482947,0.00301140186
0.85,1.33717896e-05,0.000149624358,0.000919886638,0.00174503159,0.00239692423,0.00290759257
0.9,1.2944716e-05,0.000128122042,0.000813292258,0.00163889663,0.00229152474,0.00280596675
0.95,1.2568403e-05,0.000112012235,0.000706657508,0.00153517105,0.00218854488,0.00270646343
1.0,1.22344451e-05,9.959346e-05,0.000600941281,0.0014335656,0.00208789578,0.0026090235
1.05,1.19361957e-05,8.9773486e-05,0.000500526185,0.00133366591,0.00198948244,0.00251358932
1.1,1.16683286e-05,8.1836345e-05,0.000412008214,0.00123485603,0.00189319856,0.00242010415
1.15,1.14265242e-05,7.52997507e-05,0.000339692234,0.00113621949,0.00179891864,0.00232851136
1.2,1.12072426e-05,6.98296985e-05,0.000283447472,0.00103647237,0.00170648592,0.00223875336
1.25,1.10075549e-05,6.51887789e-05,0.000240484688,0.0009341258,0.00161569348,0.00215077005
1.3,1.08250166e-05,6.12042056e-05,0.000207568757,0.000828289178,0.0015262548,0.00206449667
1.35,1.06575718e-05,5.77475292e-05,0.000182008228,0.000720323598,0.0014377587,0.0019798607
1.4,1.05034786e-05,5.47214349e-05,0.000161813307,0.000615071121,0.00134960362,0.00189677732
1.45,1.03612517e-05,5.2050938e-05,0.000145571925,0.000519232941,0.00126091443,0.00181514277
1.5,1.02296167e-05,4.96773795e-05,0.00013228952,0.000437623039,0.00117047439,0.00173482425
1.55,1.01074741e-05,4.75542432e-05,0.000121260373,0.000371306992,0.00107678515,0.00165564484
1.6,9.99387039e-06,4.56441884e-05,0.000111976732,0.000318638805,0.000978500237,0.00157736063
1.65,9.88797452e-06,4.39169064e-05,0.000104067295,0.000277011286,0.000875486441,0.00149962684
1.7,9.78905902e-06,4.23475473e-05,9.72559824e-05,0.000243916354,0.000770174747,0.00142194956
1.75,9.69648434e-06,4.091555e-05,9.1334175e-05,0.000217310951,0.000667745131,0.00134362347
1.8,9.60968601e-06,3.96037589e-05,8.61418154e-05,0.0001956405,0.000574074506,0.00126367038
1.85,9.52816395e-06,3.83977493e-05,8.15543557e-05,0.000177752345,0.00049303838,0.00118083088
1.9,9.45147362e-06,3.7285307e-05,7.74736088e-05,0.000162796549,0.000425570975,0.00109373349
1.95,9.37921849e-06,3.62560215e-05,7.38212364e-05,0.000150143529,0.000370516624,0.0010014286
2.0,9.3110438e-06,3.53009661e-05,7.05340455e-05,0.0001393225,0.000325863445,0.000904339348
2.05,9.24663119e-06,3.44124434e-05,6.75605434e-05,0.000129977289,0.000289545818,0.000805122484
2.1,9.18569419e-06,3.35837812e-05,6.48583799e-05,0.000121835073,0.000259782077,0.000708398381
2.15,9.12797433e-06,3.2809168e-05,6.23924252e-05,0.00011468427,0.000235147911,0.00061903697
2.2,9.07323781e-06,3.20835183e-05,6.01333085e-05,0.000108358815,0.000214542234,0.000540298414
2.25,9.02127266e-06,3.14023636e-05,5.80562942e-05,0.000102726881,0.000197124295,0.000473216556
2.3,8.97188625e-06,3.07617613e-05,5.6140409e-05,9.76826976e-05,0.000182252921,0.000417151514
2.35,8.92490314e-06,3.01582201e-05,5.43677587e-05,9.31405489e-05,0.000169436847,0.000370651394
2.4,8.88016323e-06,2.95886369e-05,5.2722986e-05,8.90303274e-05,0.000158296732,0.000332080156
2.45,8.83752011e-06,2.90502447e-05,5.11928398e-05,8.52941932e-05,0.000148536944,0.000299933447
2.5,8.79683964e-06,2.85405685e-05,4.97658278e-05,8.18840446e-05,0.000139924814,0.00027294701
2.55,8.75799871e-06,2.80573875e-05,4.84319357e-05,7.87595791e-05,0.000132275414,0.00025010319
2.6,8.72088413e-06,2.75987036e-05,4.71823983e-05,7.58867944e-05,0.000125440339,0.000230598771
2.65,8.68539166e-06,2.71627141e-05,4.60095115e-05,7.32368176e-05,0.000119299386,0.000213804194
2.7,8.65142512e-06,2.67477885e-05,4.49064771e-05,7.07849834e-05,0.000113754339,0.000199225941
2.75,8.61889567e-06,2.63524482e-05,4.38672741e-05,6.85101025e-05,0.000108724281,0.000186475545
2.8,8.58772113e-06,2.59753499e-05,4.28865512e-05,6.63938751e-05,0.000104142026,0.000175245287
2.85,8.55782531e-06,2.56152695e-05,4.19595364e-05,6.44204192e-05,9.99513785e-05,0.000165289594
2.9,8.52913755e-06,2.52710902e-05,4.10819613e-05,6.25758872e-05,9.61050165e-05,0.000156410926
2.95,8.50159221e-06,2.49417903e-05,4.0249996e-05,6.08481526e-05,9.25628324e-05,0.0001484491
3.0,8.4751282e-06,2.46264336e-05,3.94601952e-05,5.92265527e-05,8.92906289e-05,0.000141273191
3.05,8.44968864e-06,2.43241606e-05,3.87094505e-05,5.77016754e-05,8.62590836e-05,0.000134775368
3.1,8.42522048e-06,2.4034181e-05,3.79949508e-05,5.62651826e-05,8.34429211e-05,0.000128866158
3.15,8.4016742e-06,2.37557664e-05,3.73141476e-05,5.49096617e-05,8.08202457e-05,0.000123470807
3.2,8.37900352e-06,2.3488245e-05,3.66647249e-05,5.36285018e-05,7.83720013e-05,0.000118526438
3.25,8.35716513e-06,2.32309957e-05,3.60445736e-05,5.24157886e-05,7.60815298e-05,0.000113979834
3.3,8.33611847e-06,2.29834435e-05,3.5451769e-05,5.12662154e-05,7.39342091e-05,0.000109785688
3.35,8.31582553e-06,2.27450558e-05,3.48845509e-05,5.01750073e-05,7.19171537e-05,0.000105905207
3.4,8.2962506e-06,2.25153378e-05,3.43413065e-05,4.9137857e-05,7.00189668e-05,0.000102305006
3.45,8.27736018e-06,2.22938299e-05,3.38205556e-05,4.81508686e-05,6.82295331e-05,9.89562072e-05
3.5,8.25912274e-06,2.2080104e-05,3.33209369e-05,4.72105101e-05,6.65398445e-05,9.58337183e-05
3.55,8.24150863e-06,2.18737616e-05,3.28411964e-05,4.63135724e-05,6.4941854e-05,9.29156363e-05
3.6,8.22448992e-06,2.16744304e-05,3.23801775e-05,4.54571326e-05,6.34283517e-05,9.01827643e-05
3.65,8.20804027e-06,2.14817631e-05,3.19368111e-05,4.46385235e-05,6.19928593e-05,8.76182104e-05
3.7,8.19213484e-06,2.12954345e-05,3.15101078e-05,4.38553064e-05,6.06295402e-05,8.52070553e-05
3.75,8.17675018e-06,2.11151406e-05,3.10991508e-05,4.31052468e-05,5.93331226e-05,8.29360753e-05
3.8,8.16186413e-06,2.09405961e-05,3.07030891e-05,4.23862938e-05,5.80988328e-05,8.07935104e-05
3.85,8.14745572e-06,2.07715336e-05,3.03211319e-05,4.16965617e-05,5.69223384e-05,7.87688689e-05
3.9,8.13350513e-06,2.06077018e-05,2.99525432e-05,4.10343138e-05,5.57996984e-05,7.68527624e-05
3.95,8.11999359e-06,2.04488648e-05,2.95966373e-05,4.03979477e-05,5.47273207e-05,7.50367656e-05
4.0,8.10690328e-06,2.02948002e-05,2.92527746e-05,3.97859832e-05,5.3701924e-05,7.33132968e-05
4.05,8.09421735e-06,2.0145299e-05,2.89203577e-05,3.91970503e-05,5.27205051e-05,7.16755155e-05
4.1,8.08191978e-06,2.0000164e-05,2.85988279e-05,3.86298794e-05,5.17803107e-05,7.01172348e-05
4.15,8.06999536e-06,1.98592092e-05,2.82876625e-05,3.80832927e-05,5.08788114e-05,6.86328457e-05
4.2,8.05842966e-06,1.9722259e-05,2.79863715e-05,3.75561952e-05,5.00136799e-05,6.72172513e-05
4.25,8.04720893e-06,1.95891475e-05,2.76944955e-05,3.70475685e-05,4.91827712e-05,6.58658104e-05
4.3,8.03632013e-06,1.94597178e-05,2.74116029e-05,3.65564637e-05,4.83841051e-05,6.45742874e-05
4.35,8.02575081e-06,1.93338214e-05,2.71372882e-05,3.60819956e-05,4.7615851e-05,6.33388101e-05
4.4,8.01548915e-06,1.92113177e-05,2.68711701e-05,3.56233379e-05,4.68763138e-05,6.21558307e-05
4.45,8.00552385e-06,1.90920735e-05,2.66128894e-05,3.51797177e-05,4.61639216e-05,6.10220936e-05
4.5,7.99584417e-06,1.89759624e-05,2.63621077e-05,3.47504121e-05,4.54772151e-05,5.99346056e-05
4.55,7.98643985e-06,1.88628645e-05,2.61185056e-05,3.43347435e-05,4.48148377e-05,5.88906102e-05
4.6,7.9773011e-06,1.87526659e-05,2.5881782e-05,3.39320765e-05,4.41755262e-05,5.7887565e-05
4.65,7.96841857e-06,1.86452583e-05,2.56516521e-05,3.35418147e-05,4.35581035e-05,5.69231211e-05
4.7,7.95978333e-06,1.85405388e-05,2.54278469e-05,3.31633976e-05,4.29614712e-05,5.59951054e-05
4.75,7.95138685e-06,1.84384095e-05,2.52101116e-05,3.27962979e-05,4.2384603e-05,5.51015044e-05
4.8,7.94322097e-06,1.83387772e-05,2.4998205e-05,3.24400196e-05,4.18265392e-05,5.42404499e-05
4.85,7.93527787e-06,1.8241553e-05,2.47918988e-05,3.20940948e-05,4.12863813e-05,5.34102063e-05
4.9,7.9275501e-06,1.81466523e-05,2.45909763e-05,3.17580828e-05,4.0763287e-05,5.26091589e-05
4.95,7.92003049e-06,1.80539944e-05,2.43952318e-05,3.14315673e-05,4.02564664e-05,5.1835804e-05
5.0,7.9127122e-06,1.79635022e-05,2.42044701e-05,3.11141551e-05,3.97651775e-05,5.10887391e-05
5.05,7.90558865e-06,1.78751022e-05,2.40185058e-05,3.08054748e-05,3.92887229e-05,5.0366655e-05
5.1,7.89865354e-06,1.77887241e-05,2.38371624e-05,3.05051747e-05,3.88264466e-05,4.96683279e-05
5.15,7.89190085e-06,1.77043007e-05,2.36602722e-05,3.02129221e-05,3.83777307e-05,4.89926127e-05
5.2,7.88532477e-06,1.76217679e-05,2.34876755e-05,2.99284015e-05,3.7941993e-05,4.8338437e-05
5.25,7.87891974e-06,1.75410641e-05,2.33192201e-05,2.9651314e-05,3.75186841e-05,4.77047952e-05
5.3,7.87268042e-06,1.74621307e-05,2.31547611e-05,2.93813759e-05,3.71072856e-05,4.70907435e-05
5.35,7.86660168e-06,1.73849113e-05,2.29941601e-05,2.9118318e-05,3.67073076e-05,4.64953953e-05
5.4,7.86067859e-06,1.73093519e-05,2.28372853e-05,2.88618844e-05,3.63182869e-05,4.59179169e-05
5.45,7.85490641e-06,1.72354008e-05,2.26840106e-05,2.86118319e-05,3.59397853e-05,4.53575236e-05
5.5,7.84928059e-06,1.71630085e-05,2.25342159e-05,2.83679292e-05,3.55713876e-05,4.48134765e-05
5.55,7.84379673e-06,1.70921274e-05,2.2387786e-05,2.8129956e-05,3.52127007e-05,4.42850787e-05
5.6,7.83845062e-06,1.70227118e-05,2.22446111e-05,2.78977027e-05,3.48633516e-05,4.37716727e-05
5.65,7.8332382e-06,1.69547179e-05,2.2104586e-05,2.76709694e-05,3.45229863e-05,4.32726378e-05
5.7,7.82815555e-06,1.68881036e-05,2.196761e-05,2.74495655e-05,3.41912689e-05,4.27873871e-05
5.75,7.82319891e-06,1.68228283e-05,2.18335868e-05,2.72333093e-05,3.386788e-05,4.23153659e-05
5.8,7.81836465e-06,1.67588534e-05,2.1702424e-05,2.70220272e-05,3.35525161e-05,4.18560487e-05
5.85,7.81364927e-06,1.66961412e-05,2.15740331e-05,2.68155534e-05,3.32448883e-05,4.14089383e-05
5.9,7.80904939e-06,1.66346558e-05,2.14483292e-05,2.66137296e-05,3.29447217e-05,4.09735631e-05
5.95,7.80456177e-06,1.65743626e-05,2.13252309e-05,2.64164043e-05,3.26517543e-05,4.05494759e-05
6.0,7.80018325e-06,1.65152283e-05,2.120466e-05,2.62234326e-05,3.23657365e-05,4.01362521e-05
6.05,7.79591082e-06,1.64572207e-05,2.10865415e-05,2.6034676e-05,3.20864303e-05,3.97334886e-05
6.1,7.79174154e-06,1.64003088e-05,2.09708033e-05,2.58500017e-05,3.18136084e-05,3.93408022e-05
6.15,7.7876726e-06,1.63444629e-05,2.08573761e-05,2.56692824e-05,3.1547054e-05,3.89578287e-05
6.2,7.78370127e-06,1.62896542e-05,2.07461933e-05,2.54923963e-05,3.12865599e-05,3.85842211e-05
6.25,7.7798249e-06,1.62358549e-05,2.06371909e-05,2.53192265e-05,3.10319281e-05,3.82196494e-05
6.3,7.77604096e-06,1.61830384e-05,2.05303073e-05,2.51496608e-05,3.07829693e-05,3.78637989e-05
6.35,7.77234698e-06,1.61311787e-05,2.04254831e-05,2.49835917e-05,3.05395022e-05,3.75163698e-05
6.4,7.76874058e-06,1.6080251e-05,2.03226612e-05,2.48209157e-05,3.03013535e-05,3.71770761e-05
6.45,7.76521947e-06,1.60302311e-05,2.02217865e-05,2.46615336e-05,3.0068357e-05,3.68456447e-05
6.5,7.76178141e-06,1.59810959e-05,2.01228062e-05,2.450535e-05,2.98403536e-05,3.6521815e-05
6.55,7.75842425e-06,1.59328228e-05,2.0025669e-05,2.43522731e-05,2.96171907e-05,3.62053378e-05
6.6,7.7551459e-06,1.58853901e-05,1.99303256e-05,2.42022146e-05,2.93987219e-05,3.5895975e-05
