vds,vb1,vb2,vb3,vb4,vb5,vb6
0.0,3.37694836e-05,0.000135138215,0.000220302235,0.000287780743,0.000338313172,0.000373954705
0.05,2.71928166e-05,0.0001281005,0.000213574242,0.000281539987,0.000332646496,0.000368889454
0.1,2.06896987e-05,0.000121097505,0.000206879871,0.00027532911,0.000327005056,0.000363844851
0.15,1.43492284e-05,0.000114129116,0.000200218914,0.000269147933,0.000321388712,0.000358820789
0.2,8.47801609e-06,0.000107195256,0.000193591162,0.000262996275,0.000315797322,0.000353817163
0.25,3.92247172e-06,0.000100295904,0.000186996409,0.000256873959,0.000310230746,0.000348833869
0.3,1.52085476e-06,9.34311228e-05,0.000180434449,0.000250780806,0.000304688846,0.000343870803
0.35,6.44134559e-07,8.66011021e-05,0.000173905079,0.000244716639,0.000299171484,0.000338927862
0.4,3.41259433e-07,7.98062368e-05,0.000167408097,0.000238681282,0.000293678521,0.000334004943
0.45,2.20842946e-07,7.30472563e-05,0.000160943303,0.00023267456,0.00028820982,0.000329101945
0.5,1.64425347e-07,6.63254594e-05,0.000154510499,0.000226696297,0.000282765246,0.000324218764
0.55,1.34124966e-07,5.96431496e-05,0.000148109489,0.00022074632,0.000277344663,0.000319355301
0.6,1.16033802e-07,5.30044739e-05,0.000141740079,0.000214824454,0.000271947936,0.000314511454
0.65,1.04316186e-07,4.64171034e-05,0.000135402078,0.000208930525,0.00026657493,0.000309687123
0.7,9.62322338e-08,3.98957106e-05,0.0001290953,0.00020306436,0.000261225511,0.000304882209
0.75,9.03716201e-08,3.34693046e-05,0.000122819562,0.000197225784,0.000255899547,0.000300096612
0.8,8.59516382e-08,2.7196485e-05,0.00011657469,0.000191414623,0.000250596903,0.000295330234
0.85,8.25100528e-08,2.11942626e-05,0.000110360522,0.000185630701,0.000245317447,0.000290582976
0.9,7.97593675e-08,1.56776388e-05,0.000104176913,0.000179873842,0.000240061046,0.00028585474
0.95,7.75127862e-08,1.09642262e-05,9.80237475e-05,0.000174143866,0.000234827569,0.000281145429
1.0,7.56443461e-08,7.34693465e-06,9.19009572e-05,0.000168440594,0.000229616883,0.000276454946
1.05,7.40663521e-08,4.87445799e-06,8.58085553e-05,0.000162763841,0.000224428855,0.000271783193
1.1,7.2716042e-08,3.3190737e-06,7.97466932e-05,0.00015711342,0.000219263353,0.000267130074
1.15,7.15474029e-08,2.36955898e-06,7.37157657e-05,0.000151489136,0.000214120245,0.000262495493
1.2,7.05259812e-08,1.78255304e-06,6.77166022e-05,0.00014589079,0.000208999396,0.000257879354
1.25,6.96254925e-08,1.40675947e-06,6.17508259e-05,0.000140318174,0.000203900672,0.000253281561
1.3,6.88255499e-08,1.15583385e-06,5.5821534e-05,0.000134771068,0.000198823939,0.000248702018
1.35,6.81101047e-08,9.81193614e-07,4.9934607e-05,0.000129249241,0.000193769059,0.00024414063
1.4,6.7466355e-08,8.54985606e-07,4.41012306e-05,0.000123752442,0.000188735894,0.000239597301
1.45,6.68839658e-08,7.60721329e-07,3.83426724e-05,0.000118280402,0.000183724303,0.000235071936
1.5,6.63545028e-08,6.88283719e-07,3.26988525e-05,0.000112832825,0.000178734144,0.00023056444
1.55,6.58710152e-08,6.3124168e-07,2.724184e-05,0.00010740938,0.000173765268,0.000226074715
1.6,6.54277227e-08,5.85369666e-07,2.2091209e-05,0.000102009701,0.000168817525,0.000221602668
1.65,6.50197797e-08,5.47806174e-07,1.741663e-05,9.66333715e-05,0.000163890759,0.0002171482
1.7,6.46430925e-08,5.16559915e-07,1.34022669e-05,9.12799231e-05,0.000158984806,0.000212711215
1.75,6.42941795e-08,4.90210877e-07,1.01701461e-05,8.59488283e-05,0.000154099496,0.000208291616
1.8,6.39700599e-08,4.67723988e-07,7.71865656e-06,8.06395063e-05,0.000149234649,0.000203889304
1.85,6.36681674e-08,4.48329789e-07,5.93560018e-06,7.5351347e-05,0.000144390071,0.000199504179
1.9,6.33862795e-08,4.31446069e-07,4.66374963e-06,7.00837784e-05,0.000139565556,0.000195136141
1.95,6.31224622e-08,4.1662523e-07,3.75694548e-06,6.48364218e-05,0.000134760879,0.000190785087
2.0,6.28750244e-08,4.03518171e-07,3.10258653e-06,5.96094248e-05,0.000129975791,0.000186450913
2.05,6.26424806e-08,3.91849039e-07,2.62154435e-06,5.44041425e-05,0.000125210018,0.000182133512
2.1,6.24235206e-08,3.81397257e-07,2.2603903e-06,4.92244775e-05,0.00012046325,0.000177832775
2.15,6.22169844e-08,3.71984527e-07,1.98344196e-06,4.40794094e-05,0.000115735135,0.000173548589
2.2,6.20218411e-08,3.63465297e-07,1.7667539e-06,3.89874731e-05,0.000111025266,0.000169280837
2.25,6.18371711e-08,3.55719657e-07,1.59404736e-06,3.39838767e-05,0.000106333171,0.000165029399
2.3,6.16621519e-08,3.48647995e-07,1.454068e-06,2.91297129e-05,0.000101658297,0.000160794146
2.35,6.14960452e-08,3.42166923e-07,1.33889211e-06,2.45190713e-05,9.69999843e-05,0.000156574945
2.4,6.13381866e-08,3.36206129e-07,1.24283781e-06,2.02745245e-05,9.23574485e-05,0.000152371654
2.45,6.11879763e-08,3.3070594e-07,1.16175794e-06,1.65215947e-05,8.77297481e-05,0.00014818412
2.5,6.10448715e-08,3.25615395e-07,1.0925744e-06,1.33478163e-05,8.31157534e-05,0.000144012181
2.55,6.090838e-08,3.20890727e-07,1.03296645e-06,1.07721315e-05,7.8514114e-05,0.000139855658
2.6,6.07780539e-08,3.16494144e-07,9.81158694e-07,8.74640238e-06,7.39232362e-05,0.000135714357
2.65,6.06534853e-08,3.12392851e-07,9.35774553e-07,7.18274297e-06,6.9341285e-05,0.000131588061
2.7,6.05343015e-08,3.08558256e-07,8.95733298e-07,5.98401821e-06,6.47662521e-05,0.00012747653
2.75,6.04201613e-08,3.0496532e-07,8.60176685e-07,5.06305444e-06,6.01961581e-05,0.000123379493
2.8,6.0310752e-08,3.01592028e-07,8.28415888e-07,4.34973279e-06,5.56295244e-05,0.000119296639
2.85,6.02057862e-08,2.98418944e-07,7.99892621e-07,3.79087035e-06,5.10663457e-05,0.000115227614
2.9,6.01049994e-08,2.95428852e-07,7.74150274e-07,3.34729159e-06,4.65099316e-05,0.000111172006
2.95,6.00081479e-08,2.92606442e-07,7.50812255e-07,2.99046996e-06,4.19700984e-05,0.000107129334
3.0,5.99150063e-08,2.89938061e-07,7.29565531e-07,2.69965284e-06,3.74681036e-05,0.000103099031
3.05,5.98253665e-08,2.87411492e-07,7.1014801e-07,2.45966322e-06,3.30429813e-05,9.90804229e-05
3.1,5.97390354e-08,2.85015772e-07,6.92338769e-07,2.2593038e-06,2.8757083e-05,9.50727047e-05
3.15,5.96558342e-08,2.82741035e-07,6.75950407e-07,2.09022512e-06,2.46960133e-05,9.10749092e-05
3.2,5.95755964e-08,2.8057838e-07,6.60823024e-07,1.94612957e-06,2.09574958e-05,8.7085869e-05
3.25,5.94981675e-08,2.78519756e-07,6.46819431e-07,1.82221151e-06,1.7629009e-05,8.3104173e-05
3.3,5.94234033e-08,2.7655786e-07,6.33821312e-07,1.71476142e-06,1.47638223e-05,7.91281153e-05
3.35,5.93511694e-08,2.74686059e-07,6.21726136e-07,1.620884e-06,1.23690858e-05,7.51556429e-05
3.4,5.92813404e-08,2.72898306e-07,6.10444642e-07,1.53829536e-06,1.04112797e-05,7.11843088e-05
3.45,5.9213799e-08,2.71189088e-07,5.99898791e-07,1.46517575e-06,8.83241621e-06,6.72112495e-05
3.5,5.91484353e-08,2.69553357e-07,5.90020072e-07,1.40006145e-06,7.56673865e-06,6.32332234e-05
3.55,5.90851466e-08,2.67986491e-07,5.80748113e-07,1.34176458e-06,6.55203848e-06,5.9246777e-05
3.6,5.90238362e-08,2.66484246e-07,5.72029519e-07,1.28931305e-06,5.73500235e-06,5.5248657e-05
3.65,5.89644136e-08,2.65042718e-07,5.63816904e-07,1.24190508e-06,5.07246335e-06,5.1236657e-05
3.7,5.89067937e-08,2.63658311e-07,5.56068079e-07,1.19887454e-06,4.53057074e-06,4.72111745e-05
3.75,5.88508964e-08,2.62327708e-07,5.48745364e-07,1.15966412e-06,4.08321496e-06,4.31777928e-05
3.8,5.87966463e-08,2.61047842e-07,5.41815006e-07,1.12380456e-06,3.71039273e-06,3.91510735e-05
3.85,5.87439723e-08,2.59815875e-07,5.35246691e-07,1.09089833e-06,3.39678719e-06,3.51592016e-05
3.9,5.86928073e-08,2.58629177e-07,5.29013114e-07,1.06060673e-06,3.13063044e-06,3.12480023e-05
3.95,5.86430881e-08,2.57485305e-07,5.23089622e-07,1.03263964e-06,2.90282912e-06,2.74814549e-05
4.0,5.85947549e-08,2.56381989e-07,5.17453903e-07,1.00674731e-06,2.70630617e-06,2.39355524e-05
4.05,5.8547751e-08,2.55317119e-07,5.12085714e-07,9.82713682e-07,2.53551009e-06,2.06849175e-05
4.1,5.85020231e-08,2.54288724e-07,5.0696665e-07,9.60351015e-07,2.38605018e-06,1.77865329e-05
4.15,5.84575203e-08,2.53294969e-07,5.02079942e-07,9.39495492e-07,2.25442491e-06,1.5268077e-05
4.2,5.84141947e-08,2.52334139e-07,4.97410282e-07,9.20003583e-07,2.13781907e-06,1.31259186e-05
4.25,5.83720008e-08,2.51404629e-07,4.92943664e-07,9.01749057e-07,2.03395118e-06,1.13318386e-05
4.3,5.83308952e-08,2.50504937e-07,4.88667254e-07,8.84620492e-07,1.94095816e-06,9.8435229e-06
4.35,5.82908369e-08,2.49633656e-07,4.84569268e-07,8.68519206e-07,1.85730749e-06,8.6141307e-06
4.4,5.8251787e-08,2.48789467e-07,4.8063887e-07,8.5335751e-07,1.78172969e-06,7.59874845e-06
4.45,5.82137082e-08,2.47971129e-07,4.76866075e-07,8.39057244e-07,1.71316624e-06,6.75770033e-06
4.5,5.81765652e-08,2.47177476e-07,4.73241674e-07,8.25548536e-07,1.65072898e-06,6.05762571e-06
4.55,5.81403245e-08,2.46407413e-07,4.69757153e-07,8.12768747e-07,1.5936682e-06,5.47129342e-06
4.6,5.8104954e-08,2.45659906e-07,4.66404635e-07,8.00661572e-07,1.54134752e-06,4.97685063e-06
4.65,5.80704231e-08,2.44933983e-07,4.6317682e-07,7.89176269e-07,1.49322387e-06,4.55691268e-06
4.7,5.80367027e-08,2.44228726e-07,4.60066933e-07,7.78266999e-07,1.44883146e-06,4.1976937e-06
4.75,5.80037651e-08,2.43543267e-07,4.57068676e-07,7.67892252e-07,1.40776885e-06,3.88825669e-06
4.8,5.79715836e-08,2.42876788e-07,4.54176192e-07,7.5801436e-07,1.36968852e-06,3.6199001e-06
4.85,5.7940133e-08,2.42228514e-07,4.51384022e-07,7.4859906e-07,1.3342883e-06,3.38567042e-06
4.9,5.79093889e-08,2.41597713e-07,4.48687076e-07,7.39615129e-07,1.30130441e-06,3.17998125e-06
4.95,5.78793283e-08,2.40983689e-07,4.46080601e-07,7.31034056e-07,1.27050566e-06,2.9983179e-06
5.0,5.78499288e-08,2.40385785e-07,4.4356015e-07,7.22829755e-07,1.24168871e-06,2.83700916e-06
5.05,5.78211693e-08,2.39803378e-07,4.41121567e-07,7.14978316e-07,1.21467403e-06,2.69305084e-06
5.1,5.77930295e-08,2.39235874e-07,4.38760953e-07,7.0745779e-07,1.18930267e-06,2.56396916e-06
5.15,5.77654898e-08,2.38682712e-07,4.36474654e-07,7.00247985e-07,1.16543337e-06,2.4477145e-06
5.2,5.77385316e-08,2.38143357e-07,4.34259239e-07,6.93330304e-07,1.14294027e-06,2.34257851e-06
5.25,5.7712137e-08,2.37617301e-07,4.32111486e-07,6.86687588e-07,1.12171086e-06,2.24712899e-06
5.3,5.76862887e-08,2.37104059e-07,4.30028362e-07,6.80303981e-07,1.10164433e-06,2.16015858e-06
5.35,5.76609703e-08,2.36603172e-07,4.28007013e-07,6.74164811e-07,1.08265008e-06,2.08064397e-06
5.4,5.76361659e-08,2.361142e-07,4.26044751e-07,6.68256481e-07,1.06464651e-06,2.00771346e-06
5.45,5.76118604e-08,2.35636726e-07,4.24139038e-07,6.62566376e-07,1.04755993e-06,1.94062079e-06
5.5,5.7588039e-08,2.35170351e-07,4.22287482e-07,6.57082772e-07,1.03132364e-06,1.87872417e-06
5.55,5.75646878e-08,2.34714693e-07,4.20487822e-07,6.51794766e-07,1.01587714e-06,1.82146916e-06
5.6,5.75417932e-08,2.3426939e-07,4.18737921e-07,6.46692199e-07,1.00116544e-06,1.76837477e-06
5.65,5.75193422e-08,2.33834095e-07,4.17035757e-07,6.41765599e-07,9.87138431e-07,1.71902202e-06
5.7,5.74973222e-08,2.33408474e-07,4.15379417e-07,6.37006123e-07,9.73750405e-07,1.67304454e-06
5.75,5.74757213e-08,2.32992212e-07,4.13767087e-07,6.32405505e-07,9.60959556e-07,1.63012082e-06
5.8,5.74545277e-08,2.32585004e-07,4.12197049e-07,6.27956011e-07,9.4872759e-07,1.58996767e-06
5.85,5.74337304e-08,2.3218656e-07,4.1066767e-07,6.23650398e-07,9.37019368e-07,1.55233487e-06
5.9,5.74133185e-08,2.31796601e-07,4.09177403e-07,6.19481874e-07,9.25802592e-07,1.51700059e-06
5.95,5.73932816e-08,2.31414861e-07,4.07724776e-07,6.15444066e-07,9.15047525e-07,1.4837676e-06
6.0,5.73736097e-08,2.31041084e-07,4.06308392e-07,6.11530985e-07,9.04726751e-07,1.45245998e-06
6.05,5.73542932e-08,2.30675025e-07,4.0492692e-07,6.07737003e-07,8.94814947e-07,1.42292043e-06
6.1,5.73353226e-08,2.30316448e-07,4.03579095e-07,6.04056821e-07,8.85288697e-07,1.39500791e-06
6.15,5.7316689e-08,2.29965129e-07,4.0226371e-07,6.00485448e-07,8.76126317e-07,1.36859561e-06
6.2,5.72983836e-08,2.29620849e-07,4.00979617e-07,5.9701818e-07,8.67307695e-07,1.34356926e-06
6.25,5.72803981e-08,2.29283401e-07,3.9972572e-07,5.93650577e-07,8.58814157e-07,1.31982566e-06
6.3,5.72627243e-08,2.28952585e-07,3.98500975e-07,5.90378449e-07,8.50628341e-07,1.29727136e-06
6.35,5.72453544e-08,2.28628209e-07,3.97304384e-07,5.87197833e-07,8.42734085e-07,1.27582159e-06
6.4,5.72282807e-08,2.28310087e-07,3.96134996e-07,5.84104985e-07,8.35116326e-07,1.25539925e-06
6.45,5.7211496e-08,2.27998041e-07,3.94991899e-07,5.81096358e-07,8.2776101e-07,1.23593414e-06
6.5,5.71949931e-08,2.27691901e-07,3.93874224e-07,5.78168594e-07,8.20655009e-07,1.21736217e-06
6.55,5.71787652e-08,2.273915e-07,3.92781139e-07,5.75318512e-07,8.13786046e-07,1.19962473e-06
6.6,5.71628055e-08,2.27096681e-07,3.91711847e-07,5.72543091e-07,8.07142631e-07,1.18266814e-06
