vds,vb1,vb2,vb3,vb4,vb5,vb6
0.0,0.00026017395,0.00102947962,0.00159703409,0.00202794359,0.00231807415,0.00251498802
0.05,0.000193372812,0.000949262387,0.00151229285,0.00194344597,0.00223788899,0.00244088342
0.1,0.000130352917,0.000871789071,0.00143026444,0.00186139776,0.00215977633,0.00236847977
0.15,7.50780318e-05,0.000796951355,0.00135084583,0.00178171567,0.00208367396,0.00229773203
0.2,3.79971184e-05,0.000724646676,0.00127393722,0.00170431877,0.00200952123,0.00222859621
0.25,2.22132995e-05,0.000654779253,0.00119944165,0.0016291281,0.00193725888,0.00216102923
0.3,1.62399062e-05,0.00058726203,0.0011272649,0.00155606648,0.00186682879,0.00209498879
0.35,1.33373594e-05,0.000522019954,0.0010573156,0.00148505856,0.00179817397,0.00203043329
0.4,1.15775676e-05,0.000458996288,0.000989505299,0.00141603091,0.00173123855,0.0019673218
0.45,1.03678293e-05,0.000398167592,0.000923748153,0.00134891219,0.00166596784,0.0019056141
0.5,9.47399861e-06,0.000339585456,0.000859960057,0.00128363332,0.00160230851,0.00184527067
0.55,8.78256174e-06,0.000283501894,0.000798056734,0.00122012754,0.00154020868,0.00178625283
0.6,8.23027316e-06,0.000230714446,0.000737950119,0.00115833025,0.00147961807,0.00172852276
0.65,7.77843841e-06,0.000183148188,0.00067954188,0.00109817862,0.00142048807,0.00167204362
0.7,7.40178151e-06,0.000143622871,0.000622711974,0.00103961082,0.00136277178,0.00161677963
0.75,7.08297709e-06,0.00011364697,0.000567298951,0.000982564645,0.00130642394,0.00156269611
0.8,6.8097014e-06,9.21205049e-05,0.000513068606,0.000926975418,0.00125140076,0.00150975957
0.85,6.57292553e-06,7.67773663e-05,0.000459675947,0.000872772478,0.00119765963,0.00145793766
0.9,6.36587202e-06,6.56252154e-05,0.00040666737,0.000819873644,0.0011451586,0.0014071992
0.95,6.18334867e-06,5.72857922e-05,0.000353689955,0.000768176189,0.00109385563,0.00135751409
1.0,6.02130778e-06,5.08695346e-05,0.000301177325,0.000717542104,0.00104370755,0.00130885316
1.05,5.87654585e-06,4.58049619e-05,0.000251217967,0.000667774349,0.000994668318,0.00126118805
1.1,5.74649355e-06,4.17178303e-05,0.000207042173,0.000618580465,0.000946686691,0.00121449088
1.15,5.62906588e-06,3.83564519e-05,0.00017083777,0.000569524632,0.000899702448,0.00116873391
1.2,5.52255292e-06,3.55468333e-05,0.000142614387,0.000519991768,0.000853640723,0.00112388902
1.25,5.42553908e-06,3.31655181e-05,0.000121026258,0.000469253013,0.00080840312,0.00107992697
1.3,5.33684233e-06,3.11228021e-05,0.000104474327,0.000416827664,0.000763853878,0.00103681639
1.35,5.25546796e-06,2.93521003e-05,9.16162351e-05,0.000363269815,0.000719798611,0.000994522347
1.4,5.18057291e-06,2.7803036e-05,8.14553376e-05,0.000310831644,0.000675953152,0.000953004166
1.45,5.11143793e-06,2.64368404e-05,7.32828255e-05,0.000262800026,0.000631903259,0.00091221236
1.5,5.04744573e-06,2.52232194e-05,6.65988917e-05,0.000221674176,0.000587069077,0.000872083922
1.55,4.98806352e-06,2.41381747e-05,6.10486667e-05,0.000188125624,0.000540724381,0.000832535284
1.6,4.93282909e-06,2.31624593e-05,5.63767422e-05,0.000161422116,0.000492184412,0.000793451671
1.65,4.8813395e-06,2.2280464e-05,5.23963133e-05,0.000140294634,0.000441294979,0.000754671269
1.7,4.83324193e-06,2.14794008e-05,4.89684679e-05,0.000123492521,0.000389104226,0.000715962482
1.75,4.7882261e-06,2.07486964e-05,4.59882325e-05,0.000109986135,0.000338049125,0.000676994043
1.8,4.7460181e-06,2.00795341e-05,4.33750668e-05,9.89879315e-05,0.000291049798,0.000637303628
1.85,4.70637521e-06,1.94645052e-05,4.10662981e-05,8.99124594e-05,0.00025015557,0.000596287073
1.9,4.66908163e-06,1.88973399e-05,3.90125182e-05,8.23274944e-05,0.00021597027,0.000553263309
1.95,4.6339448e-06,1.8372697e-05,3.71743071e-05,7.59127156e-05,0.000188006799,0.000507705395
2.0,4.60079245e-06,1.78859986e-05,3.55198658e-05,7.04285748e-05,0.000165298621,0.00045968514
2.05,4.56946992e-06,1.74332992e-05,3.4023283e-05,6.5693869e-05,0.000146821138,0.000410334951
2.1,4.53983805e-06,1.70111798e-05,3.26632478e-05,6.15698353e-05,0.0001316781,0.000361829532
2.15,4.51177125e-06,1.66166639e-05,3.14220829e-05,5.79488935e-05,0.0001191479,0.000316627245
2.2,4.4851559e-06,1.62471479e-05,3.02850087e-05,5.47466362e-05,0.000108670584,0.000276507301
2.25,4.45988898e-06,1.59003444e-05,2.92395779e-05,5.18960814e-05,9.98177526e-05,0.000242151492
2.3,4.43587684e-06,1.55742362e-05,2.82752367e-05,4.93435047e-05,9.2262396e-05,0.000213350308
2.35,4.4130342e-06,1.52670374e-05,2.73829804e-05,4.70453834e-05,8.57538698e-05,0.000189427613
2.4,4.39128322e-06,1.49771612e-05,2.6555081e-05,4.49661299e-05,8.00986335e-05,0.000169575797
2.45,4.37055269e-06,1.47031931e-05,2.57848703e-05,4.30763931e-05,7.51458826e-05,0.000153034281
2.5,4.35077739e-06,1.44438679e-05,2.50665651e-05,4.13517698e-05,7.07769675e-05,0.000139156182
2.55,4.33189744e-06,1.4198051e-05,2.43951259e-05,3.97718191e-05,6.68976172e-05,0.000127417496
2.6,4.31385778e-06,1.39647214e-05,2.37661417e-05,3.83192992e-05,6.34322078e-05,0.00011740327
2.65,4.2966077e-06,1.37429586e-05,2.31757356e-05,3.6979573e-05,6.03195117e-05,0.000108787752
2.7,4.28010042e-06,1.35319297e-05,2.26204865e-05,3.57401388e-05,5.75095199e-05,0.000101315436
2.75,4.26429271e-06,1.33308801e-05,2.20973642e-05,3.45902587e-05,5.49610466e-05,9.47852126e-05
2.8,4.24914458e-06,1.31391239e-05,2.16036758e-05,3.3520661e-05,5.26399073e-05,8.90378355e-05
2.85,4.23461896e-06,1.29560364e-05,2.11370198e-05,3.25233002e-05,5.05175203e-05,8.39462962e-05
2.9,4.22068147e-06,1.27810477e-05,2.06952479e-05,3.15911625e-05,4.85698238e-05,7.94085015e-05
2.95,4.20730015e-06,1.26136365e-05,2.02764328e-05,3.07181068e-05,4.6776431e-05,7.53417278e-05
3.0,4.19444528e-06,1.24533252e-05,1.98788405e-05,2.98987341e-05,4.51199644e-05,7.16784154e-05
3.05,4.18208917e-06,1.22996756e-05,1.95009067e-05,2.91282792e-05,4.35855276e-05,6.83629629e-05
3.1,4.170206e-06,1.21522845e-05,1.91412166e-05,2.8402521e-05,4.21602835e-05,6.53492727e-05
3.15,4.15877166e-06,1.20107805e-05,1.87984874e-05,2.77177076e-05,4.08331141e-05,6.25988571e-05
3.2,4.14776363e-06,1.18748211e-05,1.84715538e-05,2.70704933e-05,3.95943457e-05,6.00793672e-05
3.25,4.13716082e-06,1.17440896e-05,1.81593541e-05,2.64578849e-05,3.84355234e-05,5.77634422e-05
3.3,4.12694349e-06,1.16182932e-05,1.78609197e-05,2.58771973e-05,3.73492274e-05,5.56278024e-05
3.35,4.11709312e-06,1.14971601e-05,1.75753645e-05,2.53260146e-05,3.63289202e-05,5.36525286e-05
3.4,4.10759234e-06,1.13804384e-05,1.73018771e-05,2.48021576e-05,3.53688209e-05,5.18204874e-05
3.45,4.09842482e-06,1.12678938e-05,1.70397121e-05,2.43036555e-05,3.4463799e-05,5.01168671e-05
3.5,4.08957523e-06,1.11593082e-05,1.67881847e-05,2.38287218e-05,3.36092868e-05,4.85288036e-05
3.55,4.08102912e-06,1.10544786e-05,1.65466635e-05,2.33757331e-05,3.28012043e-05,4.7045074e-05
3.6,4.07277288e-06,1.09532154e-05,1.63145665e-05,2.29432113e-05,3.20358964e-05,4.56558463e-05
3.65,4.06479371e-06,1.08553416e-05,1.60913554e-05,2.25298075e-05,3.13100796e-05,4.43524728e-05
3.7,4.05707949e-06,1.07606917e-05,1.58765325e-05,2.21342883e-05,3.06207957e-05,4.3127319e-05
3.75,4.0496188e-06,1.06691109e-05,1.56696361e-05,2.1755524e-05,2.99653733e-05,4.19736206e-05
3.8,4.04240087e-06,1.05804537e-05,1.54702379e-05,2.13924776e-05,2.93413936e-05,4.08853643e-05
3.85,4.03541547e-06,1.04945842e-05,1.52779399e-05,2.10441955e-05,2.87466616e-05,3.98571873e-05
3.9,4.02865294e-06,1.04113744e-05,1.50923716e-05,2.07097998e-05,2.8179181e-05,3.88842924e-05
3.95,4.02210416e-06,1.03307041e-05,1.49131879e-05,2.03884805e-05,2.76371323e-05,3.79623758e-05
4.0,4.01576044e-06,1.02524603e-05,1.47400668e-05,2.0079489e-05,2.71188534e-05,3.70875658e-05
4.05,4.00961357e-06,1.01765363e-05,1.45727076e-05,1.9782133e-05,2.66228235e-05,3.62563704e-05
4.1,4.00365575e-06,1.0102832e-05,1.44108292e-05,1.94957708e-05,2.61476483e-05,3.5465632e-05
4.15,3.99787958e-06,1.00312527e-05,1.42541683e-05,1.92198068e-05,2.56920472e-05,3.47124887e-05
4.2,3.99227801e-06,9.96170889e-06,1.41024784e-05,1.89536879e-05,2.52548417e-05,3.39943406e-05
4.25,3.98684437e-06,9.89411627e-06,1.39555281e-05,1.8696899e-05,2.48349459e-05,3.33088208e-05
4.3,3.98157229e-06,9.82839498e-06,1.38131002e-05,1.84489608e-05,2.44313573e-05,3.26537699e-05
4.35,3.97645572e-06,9.76446947e-06,1.36749907e-05,1.82094259e-05,2.40431494e-05,3.20272139e-05
4.4,3.97148889e-06,9.70226822e-06,1.35410075e-05,1.79778766e-05,2.3669464e-05,3.14273449e-05
4.45,3.9666663e-06,9.64172342e-06,1.34109699e-05,1.77539224e-05,2.33095057e-05,3.0852504e-05
4.5,3.96198271e-06,9.58277079e-06,1.32847074e-05,1.7537198e-05,2.29625358e-05,3.03011663e-05
4.55,3.95743314e-06,9.52534933e-06,1.31620594e-05,1.7327361e-05,2.26278678e-05,2.97719281e-05
4.6,3.95301281e-06,9.46940109e-06,1.30428743e-05,1.71240903e-05,2.23048626e-05,2.92634944e-05
4.65,3.94871717e-06,9.41487103e-06,1.29270086e-05,1.69270845e-05,2.19929244e-05,2.87746696e-05
4.7,3.94454186e-06,9.36170679e-06,1.28143269e-05,1.67360605e-05,2.16914975e-05,2.83043471e-05
4.75,3.94048274e-06,9.30985858e-06,1.27047011e-05,1.65507519e-05,2.14000626e-05,2.78515024e-05
4.8,3.93653583e-06,9.25927899e-06,1.25980096e-05,1.6370908e-05,2.11181342e-05,2.74151846e-05
4.85,3.93269732e-06,9.20992284e-06,1.24941376e-05,1.61962925e-05,2.08452576e-05,2.69945105e-05
4.9,3.92896358e-06,9.1617471e-06,1.23929759e-05,1.60266826e-05,2.05810069e-05,2.65886589e-05
4.95,3.92533112e-06,9.1147107e-06,1.2294421e-05,1.58618681e-05,2.03249824e-05,2.61968647e-05
5.0,3.9217966e-06,9.06877449e-06,1.21983747e-05,1.57016504e-05,2.00768087e-05,2.58184146e-05
5.05,3.91835682e-06,9.02390104e-06,1.21047435e-05,1.55458417e-05,1.98361331e-05,2.54526428e-05
5.1,3.91500872e-06,8.98005466e-06,1.20134387e-05,1.53942646e-05,1.96026238e-05,2.5098927e-05
5.15,3.91174935e-06,8.93720119e-06,1.19243758e-05,1.52467507e-05,1.93759682e-05,2.47566851e-05
5.2,3.9085759e-06,8.89530798e-06,1.18374745e-05,1.51031409e-05,1.91558719e-05,2.44253719e-05
5.25,3.90548565e-06,8.85434382e-06,1.1752658e-05,1.4963284e-05,1.89420571e-05,2.41044763e-05
5.3,3.902476e-06,8.81427881e-06,1.16698535e-05,1.4827037e-05,1.87342615e-05,2.37935185e-05
5.35,3.89954445e-06,8.77508431e-06,1.15889912e-05,1.46942636e-05,1.85322374e-05,2.3492048e-05
5.4,3.8966886e-06,8.73673292e-06,1.15100049e-05,1.45648347e-05,1.83357506e-05,2.31996411e-05
5.45,3.89390615e-06,8.69919835e-06,1.1432831e-05,1.44386274e-05,1.81445795e-05,2.29158993e-05
5.5,3.89119486e-06,8.6624554e-06,1.13574091e-05,1.43155249e-05,1.79585141e-05,2.2640447e-05
5.55,3.88855262e-06,8.62647988e-06,1.12836811e-05,1.4195416e-05,1.77773556e-05,2.23729303e-05
5.6,3.88597735e-06,8.5912486e-06,1.12115919e-05,1.40781947e-05,1.76009154e-05,2.21130151e-05
5.65,3.88346709e-06,8.55673928e-06,1.11410884e-05,1.39637601e-05,1.74290146e-05,2.18603863e-05
5.7,3.88101993e-06,8.52293051e-06,1.107212e-05,1.38520159e-05,1.72614833e-05,2.16147458e-05
5.75,3.87863403e-06,8.48980174e-06,1.1004638e-05,1.37428704e-05,1.709816e-05,2.13758118e-05
5.8,3.87630762e-06,8.4573332e-06,1.09385962e-05,1.36362359e-05,1.69388913e-05,2.11433176e-05
5.85,3.87403901e-06,8.42550588e-06,1.08739498e-05,1.35320287e-05,1.67835311e-05,2.09170107e-05
5.9,3.87182654e-06,8.39430149e-06,1.08106561e-05,1.34301688e-05,1.66319405e-05,2.06966517e-05
5.95,3.86966864e-06,8.36370243e-06,1.07486742e-05,1.33305797e-05,1.64839869e-05,2.04820135e-05
6.0,3.86756377e-06,8.33369176e-06,1.06879647e-05,1.32331883e-05,1.63395443e-05,2.02728807e-05
6.05,3.86551046e-06,8.30425316e-06,1.06284898e-05,1.31379245e-05,1.61984922e-05,2.00690487e-05
6.1,3.86350728e-06,8.27537091e-06,1.05702133e-05,1.30447213e-05,1.60607158e-05,1.98703229e-05
6.15,3.86155287e-06,8.24702985e-06,1.05131002e-05,1.29535145e-05,1.59261055e-05,1.96765185e-05
6.2,3.85964588e-06,8.21921537e-06,1.0457117e-05,1.28642425e-05,1.57945566e-05,1.94874594e-05
6.25,3.85778504e-06,8.19191339e-06,1.04022316e-05,1.27768463e-05,1.5665969e-05,1.93029782e-05
6.3,3.85596911e-06,8.16511031e-06,1.03484127e-05,1.26912693e-05,1.55402469e-05,1.91229153e-05
6.35,3.85419689e-06,8.13879302e-06,1.02956306e-05,1.26074571e-05,1.54172988e-05,1.89471184e-05
6.4,3.85246722e-06,8.11294884e-06,1.02438566e-05,1.25253576e-05,1.52970371e-05,1.87754425e-05
6.45,3.85077897e-06,8.08756555e-06,1.01930629e-05,1.24449205e-05,1.51793778e-05,1.86077491e-05
6.5,3.84913107e-06,8.06263133e-06,1.01432228e-05,1.23660978e-05,1.50642404e-05,1.84439059e-05
6.55,3.84752247e-06,8.03813478e-06,1.00943106e-05,1.22888431e-05,1.49515478e-05,1.82837866e-05
6.6,3.84595215e-06,8.01406485e-06,1.00463016e-05,1.22131118e-05,1.48412261e-05,1.81272704e-05
