vds,vb1,vb2,vb3,vb4,vb5,vb6
0.0,6.67008529e-05,0.000270643912,0.000441065492,0.000576301261,0.000677898645,0.000748936802
0.05,5.35382645e-05,0.000256529696,0.000427576473,0.000563791192,0.000666538786,0.000738786469
0.1,4.05275837e-05,0.00024248504,0.000414154811,0.000551340982,0.0006552295,0.00072867749
0.15,2.78604051e-05,0.000228509719,0.000400800086,0.000538950272,0.000643970506,0.000718609656
0.2,1.62002647e-05,0.00021460358,0.000387511883,0.000526618702,0.000632761522,0.000708582755
0.25,7.3313564e-06,0.000200766587,0.000374289787,0.000514345913,0.000621602268,0.000698596579
0.3,2.81479881e-06,0.000186998869,0.000361133389,0.00050213155,0.000610492464,0.00068865092
0.35,1.20236552e-06,0.000173300819,0.000348042282,0.00048997526,0.000599431835,0.000678745571
0.4,6.45540276e-07,0.000159673241,0.000335016062,0.00047787669,0.000588420105,0.000668880328
0.45,4.22436794e-07,0.00014611762,0.00032205433,0.000465835487,0.000577457,0.000659054986
0.5,3.17048216e-07,0.0001326366,0.000309156689,0.000453851304,0.000566542247,0.00064926934
0.55,2.60057044e-07,0.000119234872,0.000296322747,0.000441923789,0.000555675574,0.00063952319
0.6,2.25843618e-07,0.000105920885,0.000283552116,0.000430052596,0.000544856712,0.000629816333
0.65,2.03587915e-07,9.27102864e-05,0.000270844417,0.000418237376,0.00053408539,0.000620148569
0.7,1.88181068e-07,7.96330422e-05,0.000258199274,0.000406477781,0.000523361341,0.000610519698
0.75,1.76980789e-07,6.67484687e-05,0.000245616325,0.000394773463,0.000512684297,0.000600929523
0.8,1.68514777e-07,5.41764726e-05,0.000233095224,0.000383124072,0.000502053992,0.000591377845
0.85,1.61910616e-07,4.21563414e-05,0.000220635647,0.000371529257,0.000491470161,0.000581864467
0.9,1.56624131e-07,3.11262738e-05,0.000208237307,0.000359988663,0.000480932536,0.000572389194
0.95,1.52300885e-07,2.17280441e-05,0.000195899978,0.000348501934,0.000470440855,0.000562951831
1.0,1.48701364e-07,1.45418135e-05,0.000183623532,0.000337068707,0.000459994851,0.000553552182
1.05,1.45658511e-07,9.64687551e-06,0.000171408008,0.000325688614,0.00044959426,0.000544190054
1.1,1.43052571e-07,6.57409635e-06,0.00015925373,0.000314361277,0.000439238816,0.000534865254
1.15,1.40795624e-07,4.69937948e-06,0.000147161527,0.00030308631,0.000428928253,0.000525577589
1.2,1.38821754e-07,3.5399061e-06,0.000135133126,0.000291863311,0.000418662304,0.000516326867
1.25,1.37080617e-07,2.79695634e-06,0.000123171896,0.000280691862,0.000408440699,0.000507112896
1.3,1.35533125e-07,2.30035656e-06,0.000111284264,0.000269571525,0.000398263168,0.000497935485
1.35,1.34148481e-07,1.95438121e-06,9.94824269e-05,0.000258501831,0.000388129437,0.000488794442
1.4,1.32902098e-07,1.70412382e-06,8.778959e-05,0.000247482281,0.000378039228,0.000479689577
1.45,1.3177411e-07,1.51705613e-06,7.62498682e-05,0.000236512332,0.00036799226,0.000470620699
1.5,1.30748296e-07,1.37320228e-06,6.49459844e-05,0.000225591385,0.000357988244,0.000461587615
1.55,1.29811277e-07,1.25985342e-06,5.40268701e-05,0.000214718781,0.000348026886,0.000452590134
1.6,1.28951925e-07,1.16865249e-06,4.37382041e-05,0.000203893779,0.000338107884,0.000443628065
1.65,1.28160902e-07,1.09393598e-06,3.44249359e-05,0.000193115541,0.000328230922,0.000434701213
1.7,1.27430317e-07,1.03176003e-06,2.64546203e-05,0.000182383125,0.000318395675,0.000425809385
1.75,1.26753456e-07,9.79310518e-07,2.00611129e-05,0.00017169547,0.000308601799,0.000416952385
1.8,1.26124568e-07,9.34535038e-07,1.52269028e-05,0.000161051409,0.000298848932,0.000408130016
1.85,1.255387e-07,8.95907098e-07,1.17178267e-05,0.000150449725,0.000289136688,0.000399342079
1.9,1.2499156e-07,8.62271159e-07,9.21688984e-06,0.000139889287,0.00027946465,0.000390588372
1.95,1.24479415e-07,8.32738486e-07,7.43367559e-06,0.00012936938,0.000269832366,0.000381868689
2.0,1.23998995e-07,8.06615662e-07,6.14612357e-06,0.000118890399,0.000260239336,0.000373182821
2.05,1.2354743e-07,7.83354574e-07,5.19877698e-06,0.000108455268,0.000250685008,0.000364530555
2.1,1.23122187e-07,7.62516803e-07,4.48684499e-06,9.80722316e-05,0.000241168757,0.00035591167
2.15,1.22721024e-07,7.43747872e-07,3.94037548e-06,8.77601049e-05,0.000231689873,0.000347325942
2.2,1.22341946e-07,7.26758319e-07,3.51241607e-06,7.75575263e-05,0.000222247539,0.000338773136
2.25,1.21983174e-07,7.1130963e-07,3.17102924e-06,6.75375565e-05,0.000212840802,0.000330253008
2.3,1.21643116e-07,6.97203619e-07,2.89411874e-06,5.7826262e-05,0.000203468543,0.000321765303
2.35,1.21320344e-07,6.84274339e-07,2.66611493e-06,4.86162914e-05,0.000194129435,0.000313309751
2.4,1.21013571e-07,6.7238185e-07,2.47584404e-06,4.01558105e-05,0.000184821893,0.000304886068
2.45,1.20721636e-07,6.61407355e-07,2.31514395e-06,3.2694715e-05,0.000175544015,0.000296493948
2.5,1.20443488e-07,6.51249391e-07,2.17795192e-06,2.64019207e-05,0.000166293521,0.000288133062
2.55,1.20178173e-07,6.41820801e-07,2.05969361e-06,2.13068191e-05,0.000157067685,0.000279803052
2.6,1.19924823e-07,6.33046317e-07,1.95686728e-06,1.7306247e-05,0.00014786329,0.000271503526
2.65,1.19682649e-07,6.24860615e-07,1.86675606e-06,1.42210757e-05,0.000138676638,0.000263234049
2.7,1.19450928e-07,6.17206733e-07,1.78722575e-06,1.18566679e-05,0.000129503689,0.000254994135
2.75,1.19228999e-07,6.10034786e-07,1.7165806e-06,1.00398745e-05,0.000120340485,0.000246783237
2.8,1.19016255e-07,6.03300904e-07,1.65345889e-06,8.63210506e-06,0.000111184116,0.000238600731
2.85,1.1881214e-07,5.96966359e-07,1.59675648e-06,7.52852856e-06,0.000102034726,0.0002304459
2.9,1.1861614e-07,5.90996833e-07,1.5455699e-06,6.65203095e-06,9.28992831e-05,0.000222317913
2.95,1.18427783e-07,5.85361815e-07,1.49915372e-06,5.94649141e-06,8.37981052e-05,0.000214215796
3.0,1.18246632e-07,5.80034087e-07,1.45688807e-06,5.37108545e-06,7.47748926e-05,0.000206138403
3.05,1.18072284e-07,5.74989294e-07,1.41825379e-06,4.8959498e-06,6.59094992e-05,0.000198084372
3.1,1.17904363e-07,5.70205578e-07,1.38281311e-06,4.49904283e-06,5.73288499e-05,0.000190052074
3.15,1.17742522e-07,5.65663269e-07,1.35019458e-06,4.16392052e-06,4.92061709e-05,0.000182039549
3.2,1.17586439e-07,5.61344618e-07,1.32008117e-06,3.87817303e-06,4.1737703e-05,0.000174044436
3.25,1.17435814e-07,5.57233568e-07,1.2922008e-06,3.63232513e-06,3.50972139e-05,0.000166063877
3.3,1.17290367e-07,5.53315558e-07,1.26631876e-06,3.41905874e-06,2.93883246e-05,0.000158094418
3.35,1.17149838e-07,5.49577355e-07,1.2422316e-06,3.23265888e-06,2.46218809e-05,0.000150131905
3.4,1.17013982e-07,5.46006903e-07,1.21976219e-06,3.06861503e-06,2.07280728e-05,0.000142171387
3.45,1.16882572e-07,5.42593201e-07,1.19875558e-06,2.92333153e-06,1.75893607e-05,0.000134207083
3.5,1.16755395e-07,5.39326182e-07,1.17907577e-06,2.7939148e-06,1.50737308e-05,0.000126232463
3.55,1.16632251e-07,5.36196626e-07,1.16060286e-06,2.6780155e-06,1.30569204e-05,0.000118240605
3.6,1.16512953e-07,5.33196064e-07,1.14323079e-06,2.57371027e-06,1.1432749e-05,0.000110225057
3.65,1.16397324e-07,5.30316709e-07,1.12686543e-06,2.4794121e-06,1.01153944e-05,0.000102181607
3.7,1.16285201e-07,5.27551388e-07,1.11142296e-06,2.39380192e-06,9.03762456e-06,9.41115024e-05
3.75,1.16176426e-07,5.24893479e-07,1.09682849e-06,2.31577582e-06,8.14761005e-06,8.60267694e-05
3.8,1.16070854e-07,5.22336866e-07,1.08301494e-06,2.24440395e-06,7.40565204e-06,7.79579564e-05
3.85,1.15968347e-07,5.19875883e-07,1.06992206e-06,2.17889836e-06,6.78135338e-06,6.9963492e-05
3.9,1.15868774e-07,5.17505283e-07,1.05749556e-06,2.11858751e-06,6.25135775e-06,6.21375142e-05
3.95,1.15772012e-07,5.15220191e-07,1.04568642e-06,2.06289603e-06,5.79761401e-06,5.46102735e-05
4.0,1.15677945e-07,5.13016079e-07,1.03445028e-06,2.01132843e-06,5.40607041e-06,4.75348944e-05
4.05,1.15586464e-07,5.1088873e-07,1.02374687e-06,1.96345601e-06,5.06570153e-06,4.10598227e-05
4.1,1.15497464e-07,5.08834218e-07,1.01353959e-06,1.91890615e-06,4.767785e-06,3.52962888e-05
4.15,1.15410847e-07,5.06848875e-07,1.00379509e-06,1.87735363e-06,4.50536304e-06,3.02958836e-05
4.2,1.1532652e-07,5.04929279e-07,9.94482896e-07,1.83851347e-06,4.27284011e-06,2.60477711e-05
4.25,1.15244393e-07,5.03072228e-07,9.85575156e-07,1.80213496e-06,4.06568037e-06,2.24929636e-05
4.3,1.15164384e-07,5.01274724e-07,9.77046328e-07,1.76799677e-06,3.88017892e-06,1.95455021e-05
4.35,1.15086411e-07,4.99533958e-07,9.68872963e-07,1.73590285e-06,3.7132874e-06,1.71113511e-05
4.4,1.150104e-07,4.97847295e-07,9.61033494e-07,1.70567894e-06,3.56248016e-06,1.51009312e-05
4.45,1.14936279e-07,4.9621226e-07,9.53508051e-07,1.67716971e-06,3.42565079e-06,1.3435423e-05
4.5,1.14863977e-07,4.94626526e-07,9.46278299e-07,1.65023628e-06,3.30103145e-06,1.20487162e-05
4.55,1.14793431e-07,4.93087904e-07,9.39327293e-07,1.6247541e-06,3.18712967e-06,1.08869288e-05
4.6,1.14724578e-07,4.91594333e-07,9.32639351e-07,1.60061123e-06,3.08267832e-06,9.90685928e-06
4.65,1.14657359e-07,4.90143871e-07,9.26199937e-07,1.57770676e-06,2.98659587e-06,9.07415549e-06
4.7,1.14591716e-07,4.88734684e-07,9.1999556e-07,1.55594952e-06,2.89795452e-06,8.36158156e-06
4.75,1.14527596e-07,4.87365041e-07,9.14013684e-07,1.53525695e-06,2.81595456e-06,7.74752988e-06
4.8,1.14464948e-07,4.86033309e-07,9.08242642e-07,1.51555411e-06,2.73990354e-06,7.21480694e-06
4.85,1.14403721e-07,4.84737939e-07,9.02671565e-07,1.49677282e-06,2.66919935e-06,6.74967027e-06
4.9,1.1434387e-07,4.83477469e-07,8.97290314e-07,1.47885097e-06,2.60331624e-06,6.34107629e-06
4.95,1.14285348e-07,4.82250512e-07,8.92089419e-07,1.4617318e-06,2.5417934e-06,5.98009737e-06
5.0,1.14228113e-07,4.81055755e-07,8.8706003e-07,1.44536342e-06,2.48422544e-06,5.65947147e-06
5.05,1.14172123e-07,4.79891953e-07,8.8219386e-07,1.42969822e-06,2.43025446e-06,5.37325406e-06
5.1,1.14117339e-07,4.78757921e-07,8.77483148e-07,1.41469251e-06,2.37956347e-06,5.11654851e-06
5.15,1.14063723e-07,4.77652538e-07,8.72920613e-07,1.4003061e-06,2.3318708e-06,4.88529654e-06
5.2,1.14011238e-07,4.76574736e-07,8.68499419e-07,1.38650195e-06,2.28692542e-06,4.67611443e-06
5.25,1.13959851e-07,4.75523499e-07,8.64213146e-07,1.37324591e-06,2.24450292e-06,4.48616463e-06
5.3,1.13909526e-07,4.74497863e-07,8.60055751e-07,1.3605064e-06,2.20440221e-06,4.31305428e-06
5.35,1.13860233e-07,4.73496906e-07,8.56021547e-07,1.34825419e-06,2.16644255e-06,4.15475476e-06
5.4,1.1381194e-07,4.72519754e-07,8.52105177e-07,1.33646221e-06,2.13046113e-06,4.00953746e-06
5.45,1.13764618e-07,4.71565571e-07,8.48301587e-07,1.32510534e-06,2.09631091e-06,3.87592221e-06
5.5,1.13718239e-07,4.70633561e-07,8.44606006e-07,1.31416022e-06,2.06385881e-06,3.75263568e-06
5.55,1.13672774e-07,4.69722962e-07,8.41013931e-07,1.30360512e-06,2.03298407e-06,3.63857759e-06
5.6,1.13628198e-07,4.6883305e-07,8.37521101e-07,1.29341983e-06,2.00357696e-06,3.53279319e-06
5.65,1.13584486e-07,4.67963131e-07,8.34123487e-07,1.28358545e-06,1.97553748e-06,3.43445065e-06
5.7,1.13541612e-07,4.67112541e-07,8.30817276e-07,1.27408437e-06,1.94877439e-06,3.34282245e-06
5.75,1.13499555e-07,4.66280648e-07,8.27598851e-07,1.26490013e-06,1.92320423e-06,3.25726998e-06
5.8,1.1345829e-07,4.65466845e-07,8.24464787e-07,1.2560173e-06,1.89875055e-06,3.17723069e-06
5.85,1.13417796e-07,4.64670551e-07,8.21411833e-07,1.24742146e-06,1.87534322e-06,3.10220738e-06
5.9,1.13378053e-07,4.6389121e-07,8.18436901e-07,1.23909908e-06,1.85291774e-06,3.03175923e-06
5.95,1.1333904e-07,4.63128289e-07,8.15537059e-07,1.23103744e-06,1.83141475e-06,2.96549417e-06
6.0,1.13300737e-07,4.62381279e-07,8.1270952e-07,1.22322461e-06,1.81077949e-06,2.90306254e-06
6.05,1.13263126e-07,4.61649689e-07,8.09951631e-07,1.21564938e-06,1.79096142e-06,2.84415157e-06
6.1,1.13226189e-07,4.60933049e-07,8.07260869e-07,1.20830119e-06,1.77191376e-06,2.78848077e-06
6.15,1.13189907e-07,4.60230908e-07,8.0463483e-07,1.20117007e-06,1.75359321e-06,2.73579796e-06
6.2,1.13154265e-07,4.59542834e-07,8.02071224e-07,1.19424667e-06,1.73595962e-06,2.68587585e-06
6.25,1.13119245e-07,4.58868411e-07,7.99567866e-07,1.18752211e-06,1.71897567e-06,2.6385091e-06
6.3,1.13084832e-07,4.58207238e-07,7.97122674e-07,1.18098806e-06,1.7026067e-06,2.59351181e-06
6.35,1.1305101e-07,4.57558933e-07,7.94733657e-07,1.17463661e-06,1.68682043e-06,2.55071528e-06
6.4,1.13017766e-07,4.56923124e-07,7.92398918e-07,1.16846029e-06,1.67158677e-06,2.50996611e-06
6.45,1.12985084e-07,4.56299456e-07,7.90116642e-07,1.16245204e-06,1.65687764e-06,2.47112455e-06
6.5,1.1295295e-07,4.55687588e-07,7.87885093e-07,1.15660515e-06,1.64266682e-06,2.43406303e-06
6.55,1.12921352e-07,4.5508719e-07,7.85702612e-07,1.15091328e-06,1.62892979e-06,2.39866489e-06
6.6,1.12890276e-07,4.54497944e-07,7.83567611e-07,1.14537042e-06,1.61564359e-06,2.36482324e-06
