vds,vb1,vb2,vb3,vb4,vb5,vb6
0.0,1.66707059e-05,6.70979479e-05,0.000109673643,0.000143898109,0.00016969279,0.000188243135
0.05,1.34968363e-05,6.37589385e-05,0.000106546561,0.000141048673,0.000167143562,0.000185991198
0.1,1.03502593e-05,6.04282357e-05,0.00010342735,0.000138206148,0.000164600115,0.000183743956
0.15,7.26970613e-06,5.71058599e-05,0.000100315986,0.000135370514,0.000162062433,0.000181501396
0.2,4.38660674e-06,5.37918488e-05,9.72124476e-05,0.00013254175,0.000159530498,0.000179263507
0.25,2.07780217e-06,5.04862652e-05,9.41167104e-05,0.000129719833,0.000157004294,0.000177030275
0.3,7.93452098e-07,4.71892092e-05,9.10287523e-05,0.000126904742,0.000154483804,0.000174801689
0.35,3.12838984e-07,4.39008385e-05,8.79485512e-05,0.000124096457,0.000151969011,0.000172577736
0.4,1.51805396e-07,4.06213999e-05,8.48760862e-05,0.000121294955,0.0001494599,0.000170358405
0.45,9.15254762e-08,3.73512838e-05,8.1811337e-05,0.000118500215,0.000146956453,0.000168143682
0.5,6.52107395e-08,3.40911177e-05,7.87542848e-05,0.000115712216,0.000144458654,0.000165933556
0.55,5.20824207e-08,3.08419337e-05,7.57049122e-05,0.000112930937,0.000141966487,0.000163728014
0.6,4.47999856e-08,2.76054777e-05,7.26632042e-05,0.000110156357,0.000139479934,0.000161527044
0.65,4.04090669e-08,2.43848011e-05,6.96291483e-05,0.000107388453,0.00013699898,0.000159330634
0.7,3.75803027e-08,2.11854285e-05,6.66027361e-05,0.000104627205,0.000134523607,0.000157138773
0.75,3.5657981e-08,1.80177226e-05,6.35839644e-05,0.00010187259,0.0001320538,0.000154951447
0.8,3.42933112e-08,1.49016966e-05,6.05728374e-05,9.91245881e-05,0.000129589541,0.000152768644
0.85,3.32887855e-08,1.18764376e-05,5.75693696e-05,9.63831765e-05,0.000127130814,0.000150590353
0.9,3.25265408e-08,9.01598821e-06,5.45735903e-05,9.36483336e-05,0.000124677602,0.000148416562
0.95,3.1933045e-08,6.44544186e-06,5.15855501e-05,9.09200375e-05,0.000122229889,0.000146247258
1.0,3.14606416e-08,4.32619043e-06,4.86053316e-05,8.8198266e-05,0.000119787657,0.000144082429
1.05,3.10774092e-08,2.7725348e-06,4.56330647e-05,8.54829967e-05,0.000117350891,0.000141922063
1.1,3.07613417e-08,1.75973986e-06,4.26689516e-05,8.27742073e-05,0.000114919572,0.000139766148
1.15,3.04968798e-08,1.14947876e-06,3.97133069e-05,8.00718749e-05,0.000112493683,0.000137614671
1.2,3.0272773e-08,7.91236409e-07,3.67666235e-05,7.73759768e-05,0.000110073208,0.000135467622
1.25,3.00807218e-08,5.78012205e-07,3.38296817e-05,7.46864898e-05,0.00010765813,0.000133324986
1.3,2.99144935e-08,4.46642493e-07,3.09037365e-05,7.20033909e-05,0.000105248429,0.000131186753
1.35,2.97693314e-08,3.62267163e-07,2.79908408e-05,6.9326657e-05,0.000102844089,0.00012905291
1.4,2.96415514e-08,3.05780539e-07,2.50944154e-05,6.66562654e-05,0.000100445091,0.000126923445
1.45,2.95282628e-08,2.66487963e-07,2.2220259e-05,6.39921939e-05,9.80514176e-05,0.000124798344
1.5,2.94271693e-08,2.38205314e-07,1.93783296e-05,6.13344215e-05,9.56630487e-05,0.000122677597
1.55,2.93364268e-08,2.17226734e-07,1.65857887e-05,5.86829297e-05,9.32799655e-05,0.00012056119
1.6,2.92545391e-08,2.01252053e-07,1.38717991e-05,5.60377031e-05,9.09021483e-05,0.000118449111
1.65,2.91802809e-08,1.88805715e-07,1.1283737e-05,5.33987327e-05,8.85295765e-05,0.000116341347
1.7,2.91126402e-08,1.78912065e-07,8.89153218e-06,5.07660187e-05,8.61622293e-05,0.000114237886
1.75,2.90507743e-08,1.70908013e-07,6.78169939e-06,4.81395768e-05,8.38000847e-05,0.000112138714
1.8,2.89939763e-08,1.64331566e-07,5.03231887e-06,4.55194467e-05,8.14431201e-05,0.000110043818
1.85,2.89416493e-08,1.5885355e-07,3.6771634e-06,4.2905707e-05,7.90913116e-05,0.000107953185
1.9,2.88932858e-08,1.54234626e-07,2.68879777e-06,4.0298498e-05,7.67446342e-05,0.000105866802
1.95,2.88484518e-08,1.50297558e-07,1.9968846e-06,3.76980597e-05,7.44030615e-05,0.000103784655
2.0,2.88067743e-08,1.46908903e-07,1.52129751e-06,3.51047934e-05,7.20665655e-05,0.00010170673
2.05,2.87679307e-08,1.43966662e-07,1.19422762e-06,3.25193639e-05,6.97351165e-05,9.96330123e-05
2.1,2.87316407e-08,1.41391791e-07,9.66364196e-07,2.99428704e-05,6.74086823e-05,9.7563488e-05
2.15,2.869766e-08,1.39122258e-07,8.04472054e-07,2.73771325e-05,6.50872286e-05,9.54981418e-05
2.2,2.86657741e-08,1.37108822e-07,6.86858129e-07,2.48251702e-05,6.27707183e-05,9.34369584e-05
2.25,2.86357945e-08,1.35311973e-07,5.99458926e-07,2.22920025e-05,6.04591114e-05,9.13799217e-05
2.3,2.86075546e-08,1.33699706e-07,5.3309094e-07,1.97859414e-05,5.81523645e-05,8.93270152e-05
2.35,2.85809066e-08,1.32245852e-07,4.81669291e-07,1.73205855e-05,5.58504307e-05,8.72782217e-05
2.4,2.8555719e-08,1.30928841e-07,4.41088912e-07,1.49175793e-05,5.35532597e-05,8.52335232e-05
2.45,2.85318745e-08,1.29730756e-07,4.08526557e-07,1.26096584e-05,5.12607981e-05,8.31929009e-05
2.5,2.85092681e-08,1.286366e-07,3.82002815e-07,1.04422316e-05,4.897299e-05,8.11563348e-05
2.55,2.84878052e-08,1.27633745e-07,3.60103842e-07,8.4701745e-06,4.66897792e-05,7.9123804e-05
2.6,2.84674011e-08,1.26711483e-07,3.4180182e-07,6.7468563e-06,4.44111129e-05,7.70952859e-05
2.65,2.84479788e-08,1.25860685e-07,3.26337125e-07,5.3076025e-06,4.21369474e-05,7.50707565e-05
2.7,2.84294689e-08,1.25073525e-07,3.1313966e-07,4.15707066e-06,3.98672599e-05,7.30501903e-05
2.75,2.84118084e-08,1.24343258e-07,3.01775434e-07,3.26955347e-06,3.76020668e-05,7.10335592e-05
2.8,2.83949399e-08,1.23664044e-07,2.91909682e-07,2.60087762e-06,3.53414556e-05,6.90208329e-05
2.85,2.83788111e-08,1.23030802e-07,2.83281013e-07,2.10264235e-06,3.30856375e-05,6.70119786e-05
2.9,2.83633742e-08,1.22439093e-07,2.75683013e-07,1.73167471e-06,3.0835036e-05,6.50069597e-05
2.95,2.83485856e-08,1.21885026e-07,2.68950966e-07,1.45363175e-06,2.85904329e-05,6.30057364e-05
3.0,2.83344052e-08,1.21365169e-07,2.62952157e-07,1.24289777e-06,2.63532084e-05,6.10082641e-05
3.05,2.8320796e-08,1.20876495e-07,2.57578682e-07,1.08099873e-06,2.41257319e-05,5.90144936e-05
3.1,2.83077242e-08,1.20416316e-07,2.52742078e-07,9.54802129e-07,2.19119823e-05,5.70243695e-05
3.15,2.82951586e-08,1.19982241e-07,2.48369252e-07,8.54996423e-07,1.9718497e-05,5.503783e-05
3.2,2.82830701e-08,1.19572136e-07,2.44399367e-07,7.74948723e-07,1.75557299e-05,5.30548054e-05
3.25,2.82714323e-08,1.19184093e-07,2.40781447e-07,7.09892456e-07,1.54397752e-05,5.10752175e-05
3.3,2.82602201e-08,1.18816396e-07,2.37472504e-07,6.56364064e-07,1.33940784e-05,4.90989782e-05
3.35,2.82494109e-08,1.18467502e-07,2.3443607e-07,6.11815978e-07,1.14501574e-05,4.71259888e-05
3.4,2.82389831e-08,1.1813602e-07,2.31641035e-07,5.74350746e-07,9.64576955e-06,4.51561391e-05
3.45,2.82289169e-08,1.17820689e-07,2.29060721e-07,5.42537441e-07,8.01924649e-06,4.31893074e-05
3.5,2.8219194e-08,1.17520368e-07,2.26672135e-07,5.15283843e-07,6.60076477e-06,4.12253611e-05
3.55,2.8209797e-08,1.17234019e-07,2.24455369e-07,4.91746555e-07,5.40425945e-06,3.92641604e-05
3.6,2.82007098e-08,1.16960698e-07,2.22393111e-07,4.71267115e-07,4.42442313e-06,3.73055643e-05
3.65,2.81919173e-08,1.16699542e-07,2.20470243e-07,4.53326076e-07,3.64012327e-06,3.53494431e-05
3.7,2.81834056e-08,1.16449762e-07,2.18673509e-07,4.37509625e-07,3.02152427e-06,3.33957013e-05
3.75,2.81751614e-08,1.16210637e-07,2.16991244e-07,4.23485059e-07,2.53702416e-06,3.14443164e-05
3.8,2.81671723e-08,1.15981504e-07,2.15413149e-07,4.10982569e-07,2.1577913e-06,2.94954055e-05
3.85,2.81594266e-08,1.15761754e-07,2.13930095e-07,3.99781568e-07,1.85974586e-06,2.75493351e-05
3.9,2.81519135e-08,1.15550825e-07,2.12533968e-07,3.89700342e-07,1.62381813e-06,2.56069002e-05
3.95,2.81446227e-08,1.15348201e-07,2.11217535e-07,3.80588123e-07,1.43536431e-06,2.36696092e-05
4.0,2.81375445e-08,1.15153403e-07,2.09974326e-07,3.72318983e-07,1.28331956e-06,2.17401236e-05
4.05,2.81306698e-08,1.1496599e-07,2.08798541e-07,3.64787073e-07,1.15937793e-06,1.98229078e-05
4.1,2.81239899e-08,1.14785551e-07,2.07684964e-07,3.57902898e-07,1.05730624e-06,1.79251275e-05
4.15,2.81174967e-08,1.14611707e-07,2.06628895e-07,3.51590361e-07,9.72409408e-07,1.60577589e-05
4.2,2.81111827e-08,1.14444104e-07,2.05626087e-07,3.45784422e-07,9.01128896e-07,1.42366996e-05
4.25,2.81050403e-08,1.14282414e-07,2.04672694e-07,3.4042921e-07,8.40746766e-07,1.2483385e-05
4.3,2.80990629e-08,1.14126332e-07,2.03765225e-07,3.35476509e-07,7.89169414e-07,1.08241315e-05
4.35,2.8093244e-08,1.13975572e-07,2.02900506e-07,3.30884519e-07,7.44769816e-07,9.28747037e-06
4.4,2.80875772e-08,1.13829868e-07,2.02075644e-07,3.26616857e-07,7.06272221e-07,7.89948287e-06
4.45,2.80820568e-08,1.1368897e-07,2.01287996e-07,3.22641721e-07,6.72667475e-07,6.67846872e-06
4.5,2.80766772e-08,1.13552647e-07,2.00535146e-07,3.18931213e-07,6.43150451e-07,5.63118551e-06
4.55,2.80714332e-08,1.1342068e-07,1.99814878e-07,3.15460771e-07,6.17073479e-07,4.75231662e-06
4.6,2.80663197e-08,1.13292864e-07,1.99125159e-07,3.12208693e-07,5.93911422e-07,4.02704805e-06
4.65,2.80613319e-08,1.13169008e-07,1.98464119e-07,3.09155747e-07,5.73235279e-07,3.43516948e-06
4.7,2.80564654e-08,1.13048931e-07,1.97830035e-07,3.06284833e-07,5.54692065e-07,2.95495584e-06
4.75,2.80517157e-08,1.12932463e-07,1.97221317e-07,3.03580702e-07,5.37989362e-07,2.56586801e-06
4.8,2.80470788e-08,1.12819446e-07,1.96636497e-07,3.01029719e-07,5.22883362e-07,2.2499559e-06
4.85,2.80425507e-08,1.12709728e-07,1.96074217e-07,2.98619659e-07,5.09169545e-07,1.99229206e-06
4.9,2.80381277e-08,1.12603169e-07,1.95533218e-07,2.96339532e-07,4.96675351e-07,1.78084137e-06
4.95,2.80338062e-08,1.12499633e-07,1.95012331e-07,2.94179434e-07,4.85254389e-07,1.60607773e-06
5.0,2.80295828e-08,1.12398995e-07,1.94510473e-07,2.92130419e-07,4.74781822e-07,1.46053488e-06
5.05,2.80254542e-08,1.12301135e-07,1.94026634e-07,2.90184389e-07,4.65150669e-07,1.3383843e-06
5.1,2.80214173e-08,1.12205941e-07,1.93559873e-07,2.88333996e-07,4.56268827e-07,1.23507603e-06
5.15,2.80174691e-08,1.12113305e-07,1.93109316e-07,2.8657256e-07,4.48056646e-07,1.14704875e-06
5.2,2.80136067e-08,1.12023126e-07,1.92674143e-07,2.84893994e-07,4.40444957e-07,1.07150261e-06
5.25,2.80098275e-08,1.11935309e-07,1.9225359e-07,2.83292744e-07,4.33373454e-07,1.00622425e-06
5.3,2.80061288e-08,1.11849761e-07,1.91846942e-07,2.81763731e-07,4.26789358e-07,9.49453049e-07
5.35,2.80025081e-08,1.11766397e-07,1.9145353e-07,2.80302302e-07,4.20646311e-07,8.99779319e-07
5.4,2.79989629e-08,1.11685133e-07,1.91072726e-07,2.78904187e-07,4.14903452e-07,8.56066735e-07
5.45,2.7995491e-08,1.11605894e-07,1.9070394e-07,2.77565462e-07,4.09524653e-07,8.17393173e-07
5.5,2.79920901e-08,1.11528603e-07,1.9034662e-07,2.76282514e-07,4.04477863e-07,7.83005363e-07
5.55,2.79887582e-08,1.1145319e-07,1.90000245e-07,2.75052012e-07,3.99734569e-07,7.52283985e-07
5.6,2.79854931e-08,1.11379588e-07,1.89664325e-07,2.7387088e-07,3.95269332e-07,7.24716657e-07
5.65,2.7982293e-08,1.11307733e-07,1.89338401e-07,2.72736275e-07,3.91059389e-07,6.9987691e-07
5.7,2.79791559e-08,1.11237563e-07,1.89022037e-07,2.71645561e-07,3.87084326e-07,6.77407719e-07
5.75,2.79760799e-08,1.11169021e-07,1.88714823e-07,2.70596299e-07,3.83325784e-07,6.57008542e-07
5.8,2.79730635e-08,1.1110205e-07,1.88416374e-07,2.69586219e-07,3.79767212e-07,6.38425033e-07
5.85,2.79701048e-08,1.11036597e-07,1.88126322e-07,2.68613215e-07,3.76393661e-07,6.21440857e-07
5.9,2.79672023e-08,1.10972612e-07,1.87844323e-07,2.67675326e-07,3.73191593e-07,6.05871115e-07
5.95,2.79643544e-08,1.10910046e-07,1.87570049e-07,2.66770723e-07,3.70148723e-07,5.91557049e-07
6.0,2.79615596e-08,1.10848853e-07,1.8730319e-07,2.65897702e-07,3.67253883e-07,5.78361747e-07
6.05,2.79588164e-08,1.10788987e-07,1.87043454e-07,2.6505467e-07,3.64496897e-07,5.66166642e-07
6.1,2.79561236e-08,1.10730408e-07,1.86790561e-07,2.64240139e-07,3.61868479e-07,5.54868644e-07
6.15,2.79534796e-08,1.10673072e-07,1.86544247e-07,2.63452716e-07,3.59360136e-07,5.44377776e-07
6.2,2.79508833e-08,1.10616943e-07,1.86304263e-07,2.62691095e-07,3.56964092e-07,5.34615222e-07
6.25,2.79483333e-08,1.10561982e-07,1.86070368e-07,2.61954052e-07,3.54673208e-07,5.25511703e-07
6.3,2.79458285e-08,1.10508153e-07,1.85842338e-07,2.6124044e-07,3.52480926e-07,5.1700612e-07
6.35,2.79433676e-08,1.10455422e-07,1.85619955e-07,2.60549179e-07,3.50381209e-07,5.09044419e-07
6.4,2.79409497e-08,1.10403756e-07,1.85403016e-07,2.59879253e-07,3.48368491e-07,5.01578631e-07
6.45,2.79385735e-08,1.10353124e-07,1.85191324e-07,2.59229709e-07,3.46437636e-07,4.94566066e-07
6.5,2.7936238e-08,1.10303493e-07,1.84984694e-07,2.58599646e-07,3.44583894e-07,4.87968624e-07
6.55,2.79339423e-08,1.10254836e-07,1.84782948e-07,2.57988216e-07,3.42802866e-07,4.81752214e-07
6.6,2.79316853e-08,1.10207124e-07,1.84585916e-07,2.57394619e-07,3.41090477e-07,4.75886253e-07
