vds,vb1,vb2,vb3,vb4,vb5,vb6
0.0,2.98752079e-26,-2.4614809e-21,-1.1758374400000001e-20,-1.75590777e-20,-1.22273456e-20,7.649735719999999e-19
-0.05,8.89180364e-06,3.27725414e-05,5.11132765e-05,6.52668711e-05,7.65071422e-05,8.56513564e-05
-0.1,1.53761045e-05,6.27545132e-05,9.96040007e-05,0.000128115305,0.000150785805,0.00016924233
-0.15,1.96150889e-05,9.00267963e-05,0.000145542911,0.000188609513,0.000222895663,0.000250829305
-0.2,2.19224231e-05,0.000114631591,0.000188963248,0.00024677739,0.000292860996,0.000330434003
-0.25,2.29880624e-05,0.000136602398,0.000229888981,0.000302637697,0.000360697077,0.000408069245
-0.3,2.3551047e-05,0.000155972026,0.000268341828,0.000356206923,0.000426416915,0.000483745587
-0.35,2.39554774e-05,0.000172775982,0.000304343031,0.000407501004,0.00049003296,0.000557473029
-0.4,2.43024665e-05,0.00018705643,0.000337913837,0.000456535758,0.000551557541,0.000629261441
-0.45,2.46221184e-05,0.000198870257,0.000369075697,0.000503326999,0.000611002972,0.000699120682
-0.5,2.49254533e-05,0.000208307383,0.00039785044,0.000547890569,0.000668381578,0.000767060623
-0.55,2.52174863e-05,0.000215530155,0.000424260537,0.000590242359,0.000723705705,0.000833091152
-0.6,2.5500954e-05,0.00022083713,0.000448329526,0.000630398331,0.000776987724,0.000897222181
-0.65,2.57775698e-05,0.000224694031,0.000470082781,0.000668374545,0.000828240028,0.000959463637
-0.7,2.60485184e-05,0.000227622387,0.000489548895,0.000704187202,0.000877475038,0.00101982547
-0.75,2.63146773e-05,0.000230020275,0.000506762291,0.000737852712,0.00092470521,0.00107831764
-0.8,2.65767288e-05,0.000232114535,0.000521768236,0.000769387791,0.000969943039,0.00113495015
-0.85,2.68352217e-05,0.000234019065,0.000534632478,0.000798809621,0.00101320107,0.00118973299
-0.9,2.70906085e-05,0.00023579181,0.00054545883,0.000826136102,0.00105449192,0.00124267619
-0.95,2.73432694e-05,0.000237464848,0.000554416252,0.000851386256,0.00109382828,0.0012937898
-1.0,2.75935283e-05,0.000239057838,0.000561764377,0.000874580908,0.00113122298,0.00134308391
-1.05,2.78416643e-05,0.000240583988,0.000567843533,0.000895743851,0.00116668901,0.0013905686
-1.1,2.80879203e-05,0.000242052846,0.000573006808,0.000914903865,0.0012002396,0.00143625404
-1.15,2.83325091e-05,0.000243471696,0.00057754123,0.000932098266,0.00123188831,0.0014801504
-1.2,2.85756188e-05,0.000244846319,0.000581640786,0.000947379089,0.00126164922,0.00152226794
-1.25,2.88174163e-05,0.000246181441,0.000585425234,0.000960823287,0.00128953711,0.00156261698
-1.3,2.90580504e-05,0.000247481005,0.000588968024,0.000972547414,0.00131556791,0.00160120794
-1.35,2.92976548e-05,0.000248748358,0.000592316198,0.00098272258,0.00133975928,0.00163805137
-1.4,2.95363496e-05,0.000249986379,0.000595501802,0.000991576662,0.00136213158,0.00167315802
-1.45,2.97742437e-05,0.000251197565,0.000598548014,0.000999369344,0.00138270954,0.00170653887
-1.5,3.00114354e-05,0.000252384104,0.00060147246,0.00100634716,0.00140152498,0.00173820528
-1.55,3.02480146e-05,0.000253547929,0.000604289081,0.0010127086,0.00141862117,0.0017681691
-1.6,3.0484063e-05,0.000254690752,0.000607009234,0.00101859657,0.00143405958,0.00179644293
-1.65,3.07196557e-05,0.000255814104,0.000609642383,0.00102410918,0.00144792901,0.00182304046
-1.7,3.09548614e-05,0.000256919356,0.00061219655,0.00102931394,0.00146035468,0.00184797702
-1.75,3.11897437e-05,0.000258007745,0.000614678626,0.00103425886,0.00147150105,0.00187127046
-1.8,3.1424361e-05,0.000259080386,0.000617094599,0.00103897947,0.00148156056,0.00189294251
-1.85,3.16587679e-05,0.000260138294,0.000619449712,0.00104350319,0.00149072879,0.00191302093
-1.9,3.18930151e-05,0.000261182392,0.000621748596,0.00104785186,0.00149917904,0.00193154284
-1.95,3.21271504e-05,0.000262213522,0.000623995362,0.00105204341,0.0015070495,0.00194855952
-2.0,3.2361219e-05,0.000263232456,0.000626193683,0.0010560928,0.00151444391,0.00196414244
-2.05,3.25952642e-05,0.000264239904,0.000628346857,0.0010600128,0.00152143884,0.00197838915
-2.1,3.2829328e-05,0.000265236516,0.000630457853,0.0010638144,0.00152809139,0.00199142518
-2.15,3.30634519e-05,0.000266222897,0.000632529361,0.00106750715,0.00153444532,0.00200339788
-2.2,3.32976776e-05,0.000267199606,0.000634563823,0.00107109948,0.00154053511,0.00201446158
-2.25,3.35320478e-05,0.00026816716,0.000636563463,0.00107459882,0.00154638867,0.00202476062
-2.3,3.37666075e-05,0.000269126047,0.000638530313,0.00107801179,0.00155202915,0.00203441794
-2.35,3.40014047e-05,0.000270076721,0.000640466238,0.00108134434,0.00155747607,0.00204353218
-2.4,3.42364917e-05,0.000271019613,0.000642372949,0.00108460178,0.00156274617,0.00205218043
-2.45,3.44719267e-05,0.000271955135,0.000644252023,0.00108778895,0.00156785393,0.0020604229
-2.5,3.4707775e-05,0.000272883684,0.000646104918,0.00109091019,0.00157281206,0.00206830729
-2.55,3.49441107e-05,0.000273805647,0.000647932984,0.00109396949,0.00157763174,0.00207587219
-2.6,3.51810184e-05,0.000274721411,0.000649737476,0.00109697047,0.00158232291,0.00208314938
-2.65,3.54185953e-05,0.000275631363,0.000651519565,0.00109991644,0.00158689448,0.00209016561
-2.7,3.56569527e-05,0.000276535907,0.000653280348,0.00110281045,0.0015913544,0.00209694367
-2.75,3.58962187e-05,0.000277435462,0.000655020861,0.0011056553,0.00159570988,0.00210350326
-2.8,3.61365398e-05,0.000278330479,0.000656742086,0.00110845358,0.00159996743,0.00210986158
-2.85,3.63780838e-05,0.000279221447,0.000658444966,0.00111120767,0.00160413297,0.00211603375
-2.9,3.66210416e-05,0.000280108905,0.000660130414,0.0011139198,0.00160821191,0.00212203321
-2.95,3.68656302e-05,0.000280993454,0.000661799329,0.00111659201,0.00161220917,0.00212787195
-3.0,3.71120948e-05,0.000281875768,0.000663452609,0.00111922624,0.00161612929,0.0021335607
-3.05,3.73607115e-05,0.000282756609,0.000665091169,0.00112182429,0.00161997642,0.00213910916
-3.1,3.76117899e-05,0.000283636838,0.000666715957,0.00112438786,0.00162375441,0.00214452608
-3.15,3.78656756e-05,0.000284517433,0.000668327973,0.00112691855,0.0016274668,0.00214981944
-3.2,3.81227529e-05,0.000285399504,0.000669928294,0.00112941792,0.00163111687,0.00215499649
-3.25,3.83834472e-05,0.000286284305,0.000671518093,0.00113188744,0.00163470768,0.00216006386
-3.3,3.86482279e-05,0.000287173251,0.000673098669,0.0011343286,0.00163824207,0.00216502763
