vds,vb1,vb2,vb3,vb4,vb5,vb6
0.0,7.90442613e-24,-1.54044714e-27,-7.497628680000001e-26,-3.9252659500000003e-26,-9.14442528e-26,6.38690212e-26
-0.05,4.17956375e-08,1.87872813e-07,3.29067284e-07,4.603837e-07,5.83606951e-07,7.00437038e-07
-0.1,6.70540353e-08,3.55041819e-07,6.37688992e-07,9.01016463e-07,1.14821201e-06,1.382588e-06
-0.15,7.88603165e-08,5.02734398e-07,9.27056095e-07,1.32306883e-06,1.69496852e-06,2.04759056e-06
-0.2,8.26583114e-08,6.31286167e-07,1.19747318e-06,1.7268394e-06,2.22417178e-06,2.69573753e-06
-0.25,8.38064074e-08,7.40842692e-07,1.44903417e-06,2.11241699e-06,2.73590888e-06,3.3271151e-06
-0.3,8.43005088e-08,8.31549682e-07,1.68178416e-06,2.47984014e-06,3.23021651e-06,3.94175902e-06
-0.35,8.46031222e-08,9.03656986e-07,1.89575878e-06,2.82913557e-06,3.70711916e-06,4.53969275e-06
-0.4,8.48318297e-08,9.57692511e-07,2.09099481e-06,3.16032748e-06,4.16663848e-06,5.12093679e-06
-0.45,8.50244998e-08,9.94858296e-07,2.26753495e-06,3.4734399e-06,4.6087955e-06,5.68551093e-06
-0.5,8.51961273e-08,1.01772038e-06,2.42543281e-06,3.76849748e-06,5.0336112e-06,6.23343485e-06
-0.55,8.53537074e-08,1.03048144e-06,2.56476134e-06,4.04552588e-06,5.4411067e-06,6.76472823e-06
-0.6,8.55009614e-08,1.03758473e-06,2.68562867e-06,4.3045523e-06,5.83130332e-06,7.27941081e-06
-0.65,8.56400926e-08,1.04199471e-06,2.78820949e-06,4.54560617e-06,6.20422267e-06,7.77750239e-06
-0.7,8.57725246e-08,1.04515109e-06,2.87280871e-06,4.76872029e-06,6.55988671e-06,8.25902286e-06
-0.75,8.58992454e-08,1.04767537e-06,2.93998979e-06,4.97393246e-06,6.89831792e-06,8.72399222e-06
-0.8,8.60209812e-08,1.04984124e-06,2.99081296e-06,5.16128837e-06,7.21953941e-06,9.17243061e-06
-0.85,8.61382903e-08,1.051779e-06,3.02717446e-06,5.33084619e-06,7.52357518e-06,9.60435829e-06
-0.9,8.62516183e-08,1.05355673e-06,3.05199206e-06,5.48268457e-06,7.81045048e-06,1.00197958e-05
-0.95,8.63613305e-08,1.05521337e-06,3.06875795e-06,5.61691671e-06,8.08019219e-06,1.04187637e-05
-1.0,8.64677336e-08,1.05677311e-06,3.08056762e-06,5.73371553e-06,8.33282962e-06,1.08012833e-05
-1.05,8.65710895e-08,1.05825208e-06,3.08952256e-06,5.83335968e-06,8.56839544e-06,1.11673758e-05
-1.1,8.66716251e-08,1.05966172e-06,3.09682425e-06,5.91631563e-06,8.78692733e-06,1.15170633e-05
-1.15,8.67695395e-08,1.06101058e-06,3.10311378e-06,5.98337529e-06,8.98847033e-06,1.18503682e-05
-1.2,8.68650087e-08,1.06230529e-06,3.10873471e-06,6.03584837e-06,9.17308075e-06,1.21673142e-05
-1.25,8.69581898e-08,1.06355118e-06,3.11387932e-06,6.07572676e-06,9.34083239e-06,1.24679259e-05
-1.3,8.70492238e-08,1.06475265e-06,3.11866191e-06,6.10561527e-06,9.4918268e-06,1.27522294e-05
-1.35,8.71382381e-08,1.0659134e-06,3.12315487e-06,6.12829169e-06,9.62621061e-06,1.30202532e-05
-1.4,8.72253483e-08,1.06703661e-06,3.12740691e-06,6.14614002e-06,9.74420459e-06,1.32720286e-05
-1.45,8.731066e-08,1.06812504e-06,3.13145268e-06,6.16086427e-06,9.84615248e-06,1.35075911e-05
-1.5,8.73942694e-08,1.0691811e-06,3.13531801e-06,6.17354583e-06,9.93259894e-06,1.37269824e-05
-1.55,8.74762652e-08,1.07020694e-06,3.1390229e-06,6.18483563e-06,1.0004402e-05,1.39302529e-05
-1.6,8.75567289e-08,1.07120448e-06,3.14258338e-06,6.1951244e-06,1.00628597e-05,1.41174661e-05
-1.65,8.76357359e-08,1.07217545e-06,3.14601265e-06,6.20465326e-06,1.0109776e-05,1.42887054e-05
-1.7,8.77133561e-08,1.0731214e-06,3.14932177e-06,6.21357753e-06,1.01473498e-05,1.44440848e-05
-1.75,8.77896544e-08,1.07404374e-06,3.1525202e-06,6.22200226e-06,1.01778582e-05,1.45837659e-05
-1.8,8.78646912e-08,1.07494378e-06,3.15561615e-06,6.23000191e-06,1.02032945e-05,1.47079853e-05
-1.85,8.79385231e-08,1.07582269e-06,3.15861681e-06,6.23763168e-06,1.0225172e-05,1.48170975e-05
-1.9,8.80112035e-08,1.07668155e-06,3.16152854e-06,6.24493405e-06,1.02445335e-05,1.49116379e-05
-1.95,8.80827825e-08,1.07752139e-06,3.16435702e-06,6.25194278e-06,1.0262063e-05,1.49924056e-05
-2.0,8.8153308e-08,1.07834311e-06,3.16710734e-06,6.25868546e-06,1.02782048e-05,1.50605469e-05
-2.05,8.8222826e-08,1.07914758e-06,3.16978412e-06,6.26518514e-06,1.02932518e-05,1.51175895e-05
-2.1,8.82913811e-08,1.07993559e-06,3.17239153e-06,6.27146139e-06,1.03074037e-05,1.5165362e-05
-2.15,8.83590174e-08,1.08070791e-06,3.17493339e-06,6.27753111e-06,1.03208014e-05,1.52057825e-05
-2.2,8.84257789e-08,1.08146521e-06,3.17741318e-06,6.28340908e-06,1.03335485e-05,1.52406059e-05
-2.25,8.84917106e-08,1.08220816e-06,3.17983411e-06,6.2891083e-06,1.03457238e-05,1.52712551e-05
-2.3,8.85568592e-08,1.08293737e-06,3.18219914e-06,6.29464037e-06,1.03573894e-05,1.52987857e-05
-2.35,8.86212747e-08,1.08365344e-06,3.18451099e-06,6.30001567e-06,1.03685953e-05,1.53239414e-05
-2.4,8.86850109e-08,1.08435694e-06,3.18677218e-06,6.30524357e-06,1.03793832e-05,1.5347236e-05
-2.45,8.87481273e-08,1.08504842e-06,3.18898508e-06,6.31033254e-06,1.03897878e-05,1.53690265e-05
-2.5,8.88106906e-08,1.08572842e-06,3.19115187e-06,6.31529031e-06,1.03998392e-05,1.53895659e-05
-2.55,8.88727763e-08,1.08639748e-06,3.1932746e-06,6.32012393e-06,1.04095634e-05,1.54090389e-05
-2.6,8.89344705e-08,1.08705617e-06,3.19535519e-06,6.32483989e-06,1.04189833e-05,1.54275844e-05
-2.65,8.89958722e-08,1.08770505e-06,3.19739546e-06,6.32944415e-06,1.04281191e-05,1.54453101e-05
-2.7,8.90570955e-08,1.08834476e-06,3.19939714e-06,6.33394219e-06,1.04369888e-05,1.5462302e-05
-2.75,8.91182718e-08,1.08897595e-06,3.20136187e-06,6.33833913e-06,1.04456087e-05,1.54786301e-05
-2.8,8.91795529e-08,1.08959936e-06,3.20329125e-06,6.34263968e-06,1.04539936e-05,1.54943531e-05
-2.85,8.92411129e-08,1.09021582e-06,3.20518686e-06,6.34684825e-06,1.04621566e-05,1.55095206e-05
-2.9,8.9303152e-08,1.09082626e-06,3.20705024e-06,6.35096894e-06,1.04701099e-05,1.55241752e-05
-2.95,8.93658989e-08,1.09143175e-06,3.208883e-06,6.35500561e-06,1.04778648e-05,1.55383544e-05
-3.0,8.94296141e-08,1.09203353e-06,3.21068676e-06,6.35896188e-06,1.04854314e-05,1.55520908e-05
-3.05,8.94945932e-08,1.092633e-06,3.21246326e-06,6.36284118e-06,1.0492819e-05,1.55654137e-05
-3.1,8.95611701e-08,1.0932318e-06,3.21421435e-06,6.3666468e-06,1.05000366e-05,1.5578349e-05
-3.15,8.96297204e-08,1.0938318e-06,3.21594208e-06,6.37038186e-06,1.0507092e-05,1.55909203e-05
-3.2,8.97006647e-08,1.09443519e-06,3.21764875e-06,6.37404945e-06,1.05139928e-05,1.56031487e-05
-3.25,8.97744723e-08,1.09504443e-06,3.21933691e-06,6.37765257e-06,1.05207461e-05,1.56150536e-05
-3.3,8.98516644e-08,1.09566237e-06,3.22100951e-06,6.38119426e-06,1.05273582e-05,1.56266525e-05
