vds,vb1,vb2,vb3,vb4,vb5,vb6
0.0,-1.99284744e-22,-2.20990787e-22,-1.2708202500000002e-21,-1.9941637500000004e-21,-2.2501547000000003e-21,-1.7666175000000003e-21
-0.05,9.82630558e-07,3.16143615e-06,4.86738442e-06,6.22721071e-06,7.34557605e-06,8.29007375e-06
-0.1,1.73967504e-06,6.07263482e-06,9.49836122e-06,1.22343819e-05,1.44862507e-05,1.63885911e-05
-0.15,2.28267107e-06,8.74100964e-06,1.38995651e-05,1.80276327e-05,2.14277741e-05,2.43010264e-05
-0.2,2.62715337e-06,1.11700965e-05,1.80738819e-05,2.36094517e-05,2.81723626e-05,3.20293999e-05
-0.25,2.81134925e-06,1.3362532e-05,2.20232704e-05,2.89814153e-05,3.47213329e-05,3.95748436e-05
-0.3,2.90304388e-06,1.53208174e-05,2.5749465e-05,3.41448731e-05,4.10757756e-05,4.69382633e-05
-0.35,2.95887733e-06,1.70475788e-05,2.92541505e-05,3.91011198e-05,4.72367257e-05,5.41205087e-05
-0.4,3.00249649e-06,1.8545783e-05,3.25390089e-05,4.38514388e-05,5.32052058e-05,6.11224172e-05
-0.45,3.04121552e-06,1.98191173e-05,3.56057352e-05,4.83971132e-05,5.89822376e-05,6.79448247e-05
-0.5,3.07743219e-06,2.0872807e-05,3.84560493e-05,5.27394288e-05,6.45688444e-05,7.45885684e-05
-0.55,3.11208925e-06,2.1715431e-05,4.10917108e-05,5.68796761e-05,6.99660514e-05,8.1054488e-05
-0.6,3.14563383e-06,2.23626186e-05,4.35145432e-05,6.0819151e-05,7.51748867e-05,8.73434248e-05
-0.65,3.17831515e-06,2.28424539e-05,4.57264742e-05,6.45591573e-05,8.01963807e-05,9.34562227e-05
-0.7,3.21029112e-06,2.31969873e-05,4.77296065e-05,6.81010091e-05,8.50315669e-05,9.93937275e-05
-0.75,3.24167196e-06,2.34716442e-05,4.95263445e-05,7.14460345e-05,8.96814817e-05,0.000105156787
-0.8,3.27254008e-06,2.37005606e-05,5.11196294e-05,7.45955821e-05,9.41471654e-05,0.000110746252
-0.85,3.30296027e-06,2.39032516e-05,5.25133835e-05,7.75510294e-05,9.84296625e-05,0.000116162973
-0.9,3.33298526e-06,2.40895901e-05,5.3713349e-05,8.03137973e-05,0.000102530023,0.000121407806
-0.95,3.36265907e-06,2.42645945e-05,5.47285953e-05,8.28853711e-05,0.000106449303,0.000126481607
-1.0,3.39201915e-06,2.44310116e-05,5.55738335e-05,8.52673365e-05,0.000110188569,0.000131385236
-1.05,3.42109781e-06,2.4590497e-05,5.62716994e-05,8.74614364e-05,0.000113748896,0.000136119555
-1.1,3.44992324e-06,2.47441461e-05,5.68522766e-05,8.94696681e-05,0.000117131377,0.000140685428
-1.15,3.47852025e-06,2.48927423e-05,5.73476233e-05,9.12944496e-05,0.000120337127,0.000145083725
-1.2,3.50691086e-06,2.50368804e-05,5.77846139e-05,9.29389065e-05,0.000123367289,0.000149315321
-1.25,3.53511469e-06,2.51770331e-05,5.81818012e-05,9.44073679e-05,0.00012622305,0.000153381093
-1.3,3.56314935e-06,2.5313588e-05,5.85506653e-05,9.57061875e-05,0.000128905661,0.00015728193
-1.35,3.59103072e-06,2.54468713e-05,5.88981275e-05,9.68449657e-05,0.000131416466,0.000161018726
-1.4,3.61877315e-06,2.55771618e-05,5.92284926e-05,9.78379504e-05,0.00013375695,0.00016459239
-1.45,3.64638969e-06,2.57047017e-05,5.95446e-05,9.87047006e-05,0.000135928822,0.000168003846
-1.5,3.67389222e-06,2.58297033e-05,5.98484464e-05,9.94686207e-05,0.000137934133,0.000171254039
-1.55,3.70129161e-06,2.59523544e-05,6.01415197e-05,0.00010015322,0.000139775491,0.000174343947
-1.6,3.72859781e-06,2.60728223e-05,6.04249826e-05,0.000100778338,0.000141456392,0.000177274589
-1.65,3.75581998e-06,2.61912569e-05,6.06997766e-05,0.000101358607,0.000142981742,0.000180047043
-1.7,3.78296656e-06,2.63077933e-05,6.09666862e-05,0.000101904031,0.000144358611,0.000182662479
-1.75,3.81004535e-06,2.64225535e-05,6.12263781e-05,0.000102421324,0.000145597106,0.000185122194
-1.8,3.83706359e-06,2.65356486e-05,6.14794282e-05,0.000102915086,0.000146710984,0.000187427681
-1.85,3.86402801e-06,2.66471796e-05,6.17263403e-05,0.000103388602,0.000147717287,0.000189580732
-1.9,3.8909449e-06,2.67572392e-05,6.19675586e-05,0.000103844327,0.000148634558,0.000191583594
-1.95,3.91782017e-06,2.68659119e-05,6.22034789e-05,0.000104284175,0.000149480297,0.000193439215
-2.0,3.94465944e-06,2.6973276e-05,6.24344553e-05,0.000104709693,0.00015026905,0.000195151617
-2.05,3.97146806e-06,2.70794031e-05,6.26608066e-05,0.000105122166,0.000151011871,0.000196726393
-2.1,3.99825119e-06,2.71843599e-05,6.28828214e-05,0.000105522681,0.000151716797,0.000198171294
-2.15,4.0250139e-06,2.72882078e-05,6.31007617e-05,0.000105912181,0.000152389641,0.000199496678
-2.2,4.05176124e-06,2.73910041e-05,6.33148663e-05,0.000106291486,0.000153034688,0.000200715442
-2.25,4.07849833e-06,2.74928022e-05,6.35253539e-05,0.000106661321,0.000153655201,0.000201842097
-2.3,4.10523049e-06,2.7593652e-05,6.37324248e-05,0.000107022332,0.000154253751,0.000202891183
-2.35,4.13196331e-06,2.76936003e-05,6.39362635e-05,0.000107375097,0.000154832426,0.000203875733
-2.4,4.15870285e-06,2.77926915e-05,6.413704e-05,0.000107720138,0.000155392966,0.000204806448
-2.45,4.18545571e-06,2.78909679e-05,6.43349116e-05,0.000108057926,0.000155936851,0.000205691655
-2.5,4.21222927e-06,2.79884699e-05,6.4530024e-05,0.00010838889,0.00015646536,0.000206537704
-2.55,4.23903179e-06,2.80852371e-05,6.47225127e-05,0.000108713423,0.000156979615,0.000207349463
-2.6,4.26587266e-06,2.81813081e-05,6.49125037e-05,0.000109031881,0.000157480605,0.000208130736
-2.65,4.29276259e-06,2.82767218e-05,6.51001151e-05,0.000109344595,0.000157969216,0.000208884572
-2.7,4.31971381e-06,2.83715177e-05,6.52854572e-05,0.000109651868,0.000158446239,0.000209613477
-2.75,4.34674033e-06,2.84657367e-05,6.54686344e-05,0.000109953979,0.000158912391,0.000210319558
-2.8,4.37385815e-06,2.85594221e-05,6.56497453e-05,0.000110251187,0.000159368321,0.000211004616
-2.85,4.40108558e-06,2.86526201e-05,6.58288841e-05,0.000110543733,0.000159814621,0.000211670218
-2.9,4.42844342e-06,2.87453812e-05,6.60061417e-05,0.000110831839,0.000160251831,0.000212317741
-2.95,4.45595531e-06,2.88377613e-05,6.61816064e-05,0.000111115715,0.000160680448,0.000212948406
-3.0,4.48364797e-06,2.89298224e-05,6.63553657e-05,0.000111395553,0.000161100926,0.000213563306
-3.05,4.51155151e-06,2.90216344e-05,6.65275072e-05,0.000111671537,0.000161513686,0.000214163426
-3.1,4.53969968e-06,2.91132758e-05,6.66981204e-05,0.000111943838,0.000161919117,0.000214749654
-3.15,4.56813021e-06,2.92048358e-05,6.68672983e-05,0.000112212619,0.000162317579,0.0002153228
-3.2,4.59688508e-06,2.92964151e-05,6.70351393e-05,0.000112478033,0.000162709406,0.000215883604
-3.25,4.62601079e-06,2.93881278e-05,6.72017491e-05,0.000112740229,0.000163094908,0.000216432741
-3.3,4.65555866e-06,2.94801027e-05,6.73672433e-05,0.000112999351,0.000163474377,0.000216970834
