vds,vb1,vb2,vb3,vb4,vb5,vb6
0.0,4.967886289999999e-32,-6.642654880000001e-21,-1.5811189700000002e-20,-5.847535210000001e-21,-1.1351046600000001e-29,-1.48495236e-20
-0.05,4.18296788e-06,3.5714954e-05,6.01160687e-05,7.82254453e-05,9.19888576e-05,0.00010265676
-0.1,6.11116212e-06,6.77650974e-05,0.000116798442,0.000153320805,0.000181133793,0.000202723819
-0.15,6.71876853e-06,9.62031755e-05,0.000170083106,0.000225312237,0.000267454483,0.000300216399
-0.2,6.96326553e-06,0.000121083529,0.000220006067,0.00029422594,0.000350970665,0.00039514978
-0.25,7.13412856e-06,0.000142464108,0.000266603362,0.000360088125,0.000431702107,0.000487539287
-0.3,7.28352462e-06,0.000160411109,0.000309911136,0.000422925022,0.000509668615,0.000577400282
-0.35,7.42355545e-06,0.000175010164,0.000349965751,0.000482762883,0.000584890026,0.00066474817
-0.4,7.55827747e-06,0.000186394252,0.000386803975,0.000539627988,0.000657386205,0.00074959839
-0.45,7.68950492e-06,0.000194809178,0.000420463313,0.000593546655,0.000727177044,0.000831966413
-0.5,7.81823563e-06,0.000200722975,0.000450982589,0.000644545266,0.000794282459,0.000911867739
-0.55,7.94510207e-06,0.00020485516,0.000478403003,0.000692650301,0.000858722393,0.0009893179
-0.6,8.07054517e-06,0.000207939625,0.000502770146,0.000737888391,0.000920516815,0.00106433245
-0.65,8.19489261e-06,0.000210462631,0.00052413793,0.000780286404,0.000979685726,0.00113692696
-0.7,8.31839882e-06,0.000212668722,0.000542576475,0.00081987159,0.00103624917,0.00120711704
-0.75,8.44126766e-06,0.000214673109,0.000558187903,0.000856671798,0.00109022723,0.00127491832
-0.8,8.56366628e-06,0.000216534157,0.000571135735,0.00089071584,0.00114164009,0.00134034643
-0.85,8.68573417e-06,0.000218285122,0.000581688202,0.00092203411,0.001190508,0.00140341705
-0.9,8.8075894e-06,0.000219947168,0.000590247382,0.000950659635,0.00123685137,0.00146414587
-0.95,8.92933307e-06,0.000221534987,0.000597303194,0.000976629939,0.00128069085,0.00152254864
-1.0,9.05105261e-06,0.000223059436,0.000603311598,0.000999990399,0.00132204735,0.00157864111
-1.05,9.17282424e-06,0.000224528908,0.000608605658,0.00102080032,0.00136094228,0.00163243911
-1.1,9.29471491e-06,0.000225950107,0.000613395753,0.00103914364,0.00139739775,0.00168395852
-1.15,9.41678382e-06,0.000227328512,0.00061780987,0.00105514633,0.00143143695,0.00173321534
-1.2,9.5390836e-06,0.000228668689,0.000621928556,0.00106899877,0.00146308479,0.00178022567
-1.25,9.66166129e-06,0.000229974492,0.000625805719,0.00108097037,0.00149236889,0.00182500578
-1.3,9.78455918e-06,0.000231249218,0.000629479732,0.00109139226,0.00151932133,0.00186757222
-1.35,9.9078154e-06,0.000232495709,0.000632979339,0.00110060198,0.00154398156,0.00190794187
-1.4,1.00314645e-05,0.000233716442,0.000636326941,0.00110888612,0.00156640125,0.00194613214
-1.45,1.01555379e-05,0.000234913582,0.000639540517,0.00111645808,0.00158665222,0.00198216121
-1.5,1.02800644e-05,0.000236089044,0.000642634824,0.00112346742,0.00160483777,0.0020160484
-1.55,1.04050701e-05,0.00023724452,0.000645622195,0.0011300186,0.00162110552,0.00204781482
-1.6,1.05305794e-05,0.000238381524,0.000648513071,0.00113618663,0.00163565416,0.00207748429
-1.65,1.06566145e-05,0.000239501406,0.0006513164,0.00114202745,0.00164872285,0.00210508494
-1.7,1.07831962e-05,0.000240605382,0.000654039916,0.00114758428,0.00166056113,0.00213065176
-1.75,1.09103437e-05,0.00024169455,0.000656690364,0.00115289153,0.00167139533,0.00215423056
-1.8,1.1038075e-05,0.000242769902,0.000659273663,0.00115797722,0.00168141003,0.00217588391
-1.85,1.11664073e-05,0.000243832342,0.00066179504,0.00116286467,0.00169074725,0.0021956989
-1.9,1.12953568e-05,0.000244882692,0.000664259138,0.0011675735,0.0016995145,0.00221379465
-1.95,1.14249391e-05,0.000245921703,0.0006666701,0.00117212047,0.00170779401,0.00223032505
-2.0,1.15551695e-05,0.000246950065,0.000669031637,0.00117652004,0.00171564996,0.00224547091
-2.05,1.16860632e-05,0.000247968412,0.000671347093,0.00118078477,0.00172313369,0.00225942168
-2.1,1.18176357e-05,0.00024897733,0.000673619485,0.00118492566,0.00173028705,0.00227235512
-2.15,1.19499029e-05,0.00024997736,0.000675851551,0.0011889524,0.00173714483,0.00228442445
-2.2,1.20828817e-05,0.000250969006,0.000678045779,0.00119287359,0.00174373634,0.00229575522
-2.25,1.22165902e-05,0.000251952741,0.00068020444,0.0011966969,0.00175008658,0.0023064483
-2.3,1.23510486e-05,0.00025292901,0.000682329611,0.00120042918,0.00175621711,0.00231658477
-2.35,1.24862791e-05,0.000253898236,0.000684423198,0.0012040766,0.00176214664,0.00232623052
-2.4,1.26223073e-05,0.000254860825,0.000686486954,0.0012076447,0.00176789159,0.00233543982
-2.45,1.2759162e-05,0.000255817174,0.000688522498,0.00121113854,0.00177346639,0.00234425803
-2.5,1.28968767e-05,0.000256767676,0.000690531331,0.00121456269,0.00177888386,0.00235272352
-2.55,1.30354897e-05,0.000257712725,0.000692514845,0.00121792131,0.00178415541,0.00236086909
-2.6,1.31750454e-05,0.000258652727,0.000694474346,0.00122121822,0.00178929124,0.00236872309
-2.65,1.33155951e-05,0.000259588106,0.000696411057,0.00122445691,0.00179430053,0.0023763102
-2.7,1.34571979e-05,0.000260519314,0.000698326141,0.00122764059,0.00179919156,0.00238365202
-2.75,1.35999218e-05,0.00026144684,0.000700220709,0.00123077222,0.00180397182,0.00239076764
-2.8,1.37438444e-05,0.000262371222,0.000702095836,0.00123385454,0.00180864812,0.00239767399
-2.85,1.38890548e-05,0.000263293056,0.000703952578,0.00123689008,0.00181322667,0.00240438615
-2.9,1.40356537e-05,0.00026421301,0.000705791992,0.0012398812,0.00181771314,0.00241091762
-2.95,1.41837556e-05,0.000265131838,0.000707615146,0.00124283011,0.00182211271,0.00241728057
-3.0,1.43334892e-05,0.000266050389,0.000709423151,0.0012457389,0.00182643016,0.00242348595
-3.05,1.44849993e-05,0.000266969626,0.000711217176,0.00124860953,0.00183066989,0.00242954371
-3.1,1.46384474e-05,0.000267890638,0.000712998474,0.0012514439,0.00183483596,0.00243546286
-3.15,1.47940136e-05,0.000268814655,0.000714768411,0.00125424382,0.00183893213,0.00244125163
-3.2,1.49518976e-05,0.000269743065,0.000716528492,0.00125701109,0.00184296189,0.00244691755
-3.25,1.51123198e-05,0.000270677426,0.000718280395,0.00125974751,0.00184692851,0.00245246751
-3.3,1.52755228e-05,0.000271619486,0.000720025999,0.00126245488,0.00185083504,0.00245790785
