vds,vb1,vb2,vb3,vb4,vb5,vb6
-0.0,0.0,0.0,0.0,0.0,0.0,0.0
-0.05,4.27218633e-07,1.9300769e-05,3.59329487e-05,4.84557829e-05,5.80003929e-05,6.53544442e-05
-0.1,4.98878871e-07,3.61257086e-05,6.93856941e-05,9.45472955e-05,0.000113783366,0.000128643282
-0.15,5.22542048e-07,5.05421941e-05,0.000100413687,0.000138320729,0.000167387366,0.000189898633
-0.2,5.4034389e-07,6.26189803e-05,0.000129070888,0.000179821105,0.000218849964,0.000249151959
-0.25,5.56673902e-07,7.24309754e-05,0.000155409895,0.000219092321,0.000268207881,0.000306434079
-0.3,5.72434967e-07,8.00717228e-05,0.000179482113,0.000256177194,0.000315497017,0.000361775187
-0.35,5.87931291e-07,8.56865251e-05,0.000201337998,0.000291117515,0.000360752473,0.00041520487
-0.4,6.03303991e-07,8.95449266e-05,0.000221027449,0.000323954098,0.000404008576,0.00046675212
-0.45,6.18633761e-07,9.21067893e-05,0.000238600479,0.000354726843,0.000445298911,0.000516445355
-0.5,6.33973457e-07,9.39038632e-05,0.000254108455,0.000383474807,0.000484656342,0.000564312431
-0.55,6.49360921e-07,9.53099621e-05,0.000267606543,0.000410236307,0.000522113039,0.00061038066
-0.6,6.6482493e-07,9.65088031e-05,0.000279158716,0.000435049044,0.000557700513,0.000654676823
-0.65,6.80388308e-07,9.75819236e-05,0.000288848115,0.000457950302,0.000591449643,0.000697227187
-0.7,6.96069742e-07,9.85685059e-05,0.000296797111,0.000478977249,0.000623390716,0.000738057521
-0.75,7.11884908e-07,9.94901149e-05,0.000303197621,0.000498167439,0.000653553472,0.000777193114
-0.8,7.27847216e-07,0.000100360176,0.000308330008,0.000515559673,0.00068196716,0.000814658786
-0.85,7.43968332e-07,0.000101187857,0.000312524911,0.000531195549,0.000708660615,0.000850478914
-0.9,7.60258546e-07,0.000101979843,0.000316076305,0.000545122318,0.000733662366,0.000884677449
-0.95,7.76727045e-07,0.000102741238,0.000319189734,0.000557398131,0.000757000791,0.000917277941
-1.0,7.93382127e-07,0.000103476066,0.000321992068,0.000568101243,0.000778704358,0.000948303564
-1.05,8.10231352e-07,0.000104187579,0.000324560629,0.000577343841,0.000798802015,0.000977777156
-1.1,8.27281674e-07,0.000104878458,0.0003269449,0.000585285719,0.000817323827,0.00100572126
-1.15,8.44539536e-07,0.00010555094,0.000329178638,0.000592133015,0.00083430206,0.00103215819
-1.2,8.62010952e-07,0.000106206922,0.000331286227,0.000598109439,0.00084977305,0.00105711013
-1.25,8.79701571e-07,0.000106848023,0.000333286093,0.000603415523,0.000863780403,0.00108059922
-1.3,8.97616732e-07,0.00010747564,0.000335192639,0.000608206144,0.000876380218,0.00110264779
-1.35,9.15761502e-07,0.00010809099,0.00033701742,0.000612592108,0.000887648635,0.00112327867
-1.4,9.34140721e-07,0.000108695133,0.00033876989,0.000616651638,0.000897689937,0.00114251564
-1.45,9.52759028e-07,0.000109289007,0.000340457914,0.00062044116,0.000906639428,0.00116038421
-1.5,9.71620887e-07,0.000109873439,0.000342088115,0.00062400273,0.000914653976,0.00117691296
-1.55,9.90730611e-07,0.000110449167,0.000343666135,0.000627368705,0.000921891507,0.00119213562
-1.6,1.01009238e-06,0.00011101685,0.000345196823,0.000630564663,0.000928491747,0.00120609435
-1.65,1.02971028e-06,0.000111577078,0.000346684382,0.000633611274,0.000934567904,0.00121884427
-1.7,1.04958827e-06,0.000112130383,0.000348132479,0.000636525536,0.00094020799,0.00123045857
-1.75,1.06973025e-06,0.000112677248,0.000349544338,0.000639321638,0.000945479942,0.00124103128
-1.8,1.09014008e-06,0.000113218108,0.000350922802,0.000642011563,0.000950436765,0.00125067418
-1.85,1.11082153e-06,0.000113753362,0.0003522704,0.00064460554,0.000955120516,0.00125950687
-1.9,1.1317784e-06,0.000114283371,0.000353589385,0.000647112377,0.000959565159,0.00126764435
-1.95,1.15301447e-06,0.000114808469,0.000354881777,0.000649539717,0.000963798559,0.00127518839
-2.0,1.17453356e-06,0.00011532896,0.000356149393,0.000651894237,0.000967843898,0.00128222446
-2.05,1.19633955e-06,0.000115845127,0.000357393872,0.00065418181,0.00097172069,0.00128882272
-2.1,1.21843642e-06,0.00011635723,0.000358616701,0.000656407626,0.000975445537,0.00129504049
-2.15,1.24082831e-06,0.000116865512,0.00035981923,0.000658576297,0.000979032686,0.00130092475
-2.2,1.26351955e-06,0.000117370202,0.000361002692,0.000660691941,0.000982494464,0.0013065144
-2.25,1.28651473e-06,0.000117871514,0.000362168211,0.000662758248,0.000985841611,0.00131184192
-2.3,1.30981876e-06,0.000118369655,0.000363316821,0.000664778541,0.000989083543,0.00131693474
-2.35,1.33343696e-06,0.000118864823,0.000364449474,0.000666755819,0.000992228564,0.00132181618
-2.4,1.35737513e-06,0.000119357213,0.000365567047,0.000668692802,0.000995284035,0.00132650628
-2.45,1.38163964e-06,0.00011984702,0.000366670356,0.000670591963,0.000998256512,0.00133102233
-2.5,1.40623756e-06,0.000120334443,0.000367760159,0.000672455557,0.00100115186,0.00133537942
-2.55,1.43117675e-06,0.000120819686,0.000368837171,0.000674285646,0.00100397534,0.00133959075
-2.6,1.45646602e-06,0.000121302966,0.000369902063,0.000676084123,0.00100673172,0.00134366794
-2.65,1.48211523e-06,0.000121784515,0.00037095548,0.000677852731,0.00100942528,0.00134762129
-2.7,1.50813544e-06,0.000122264588,0.000371998043,0.000679593076,0.00101205992,0.00135145997
-2.75,1.5345391e-06,0.000122743464,0.000373030361,0.000681306649,0.0010146392,0.00135519216
-2.8,1.56134018e-06,0.000123221455,0.000374053041,0.000682994838,0.00101716635,0.00135882519
-2.85,1.58855439e-06,0.000123698913,0.000375066696,0.000684658942,0.00101964436,0.0013623657
-2.9,1.61619931e-06,0.000124176232,0.000376071961,0.000686300186,0.00102207594,0.00136581964
-2.95,1.64429465e-06,0.00012465386,0.000377069505,0.000687919734,0.00102446361,0.00136919245
-3.0,1.6728624e-06,0.0001251323,0.00037806004,0.000689518705,0.00102680969,0.00137248906
-3.05,1.70192707e-06,0.000125612123,0.000379044343,0.000691098191,0.00102911633,0.00137571395
-3.1,1.73151593e-06,0.000126093973,0.000380023265,0.000692659267,0.00103138554,0.00137887125
-3.15,1.76165919e-06,0.000126578572,0.000380997755,0.00069420302,0.00103361919,0.00138196473
-3.2,1.79239028e-06,0.000127066733,0.000381968872,0.000695730559,0.00103581905,0.00138499787
-3.25,1.82374606e-06,0.00012755936,0.000382937806,0.000697243042,0.00103798681,0.00138797386
-3.3,1.85576709e-06,0.000128057464,0.000383905899,0.000698741701,0.00104012407,0.00139089567
