vds,vb1,vb2,vb3,vb4,vb5,vb6
-0.0,0.0,0.0,0.0,0.0,0.0,0.0
-0.05,9.0573051e-06,3.39164271e-05,5.38116838e-05,6.9678642e-05,8.26138349e-05,9.33635147e-05
-0.1,1.56539265e-05,6.48152973e-05,0.000104644584,0.000136498684,0.000162506019,0.000184141109
-0.15,1.99651757e-05,9.28025682e-05,0.000152597449,0.000200552688,0.000239763985,0.00027241601
-0.2,2.23157282e-05,0.000117941549,0.000197726059,0.000261890401,0.000314432485,0.000358228864
-0.25,2.34043808e-05,0.000140285743,0.000240075611,0.000320551111,0.000386545943,0.000441610094
-0.3,2.39796002e-05,0.000159887326,0.000279688307,0.000376571201,0.000456135998,0.00052258743
-0.35,2.43922377e-05,0.000176800797,0.000316605171,0.000429985921,0.000523233266,0.000601187677
-0.4,2.47459344e-05,0.000191087447,0.00035086656,0.000480829817,0.000587867764,0.000677437126
-0.45,2.50715952e-05,0.000202824594,0.000382512396,0.000529136852,0.000650069014,0.000751361658
-0.5,2.53805309e-05,0.000212126452,0.000411582403,0.000574940455,0.000709866077,0.000822986778
-0.55,2.56778861e-05,0.000219187851,0.000438116452,0.000618273562,0.000767287573,0.000892337623
-0.6,2.5966466e-05,0.000224349072,0.000462155144,0.000659168657,0.000822361696,0.000959438972
-0.65,2.62480262e-05,0.000228110307,0.000483740823,0.000697657831,0.000875116225,0.00102431526
-0.7,2.652378e-05,0.000230996178,0.000502919431,0.000733772855,0.000925578545,0.00108699057
-0.75,2.6794626e-05,0.0002333856,0.000519744015,0.000767545288,0.000973775663,0.00114748866
-0.8,2.70612626e-05,0.000235488035,0.000534281467,0.000799006637,0.00101973423,0.00120583296
-0.85,2.73242515e-05,0.000237408129,0.000546625284,0.000828188598,0.00106348057,0.00126204661
-0.9,2.75840559e-05,0.000239199673,0.000556917623,0.000855123442,0.00110504071,0.0013161524
-0.95,2.78410648e-05,0.000240892912,0.000565378616,0.00087984464,0.00114444043,0.00136817286
-1.0,2.80956096e-05,0.000242506669,0.00057232162,0.000902387926,0.00118170532,0.00141813024
-1.05,2.83479759e-05,0.000244053752,0.000578116747,0.000922793118,0.00121686086,0.00146604651
-1.1,2.85984121e-05,0.000245543505,0.000583107136,0.00094110731,0.00124993257,0.00151194339
-1.15,2.88471361e-05,0.000246983108,0.000587547255,0.000957390449,0.00128094614,0.0015558424
-1.2,2.90943401e-05,0.000248378289,0.000591600411,0.000971724689,0.00130992774,0.00159776484
-1.25,2.93401949e-05,0.000249733744,0.000595366233,0.000984228424,0.00133690444,0.00163773185
-1.3,2.95848528e-05,0.000251053405,0.000598906716,0.000995072217,0.00136190492,0.00167576446
-1.35,2.98284505e-05,0.000252340615,0.000602262605,0.0010044853,0.00138496051,0.00171188368
-1.4,3.00711108e-05,0.000253598253,0.000605462409,0.00101273644,0.00140610711,0.00174611055
-1.45,3.0312945e-05,0.000254828823,0.000608527228,0.00102008986,0.00142538814,0.0017784663
-1.5,3.05540539e-05,0.000256034519,0.000611473403,0.00102676469,0.00144285947,0.00180897256
-1.55,3.07945292e-05,0.00025721728,0.000614314035,0.0010329214,0.00145859674,0.0018376517
-1.6,3.10344546e-05,0.000258378827,0.000617059909,0.00103867063,0.00147270497,0.00186452722
-1.65,3.12739068e-05,0.000259520699,0.000619720083,0.00104408816,0.00148532734,0.0018896246
-1.7,3.15129561e-05,0.000260644275,0.000622302279,0.00104922743,0.00149664588,0.00191297239
-1.75,3.17516675e-05,0.0002617508,0.000624813165,0.00105412761,0.00150686676,0.00193460412
-1.8,3.19901008e-05,0.000262841397,0.000627258553,0.00105881868,0.00151619316,0.00195456115
-1.85,3.22283118e-05,0.000263917089,0.000629643551,0.00106332438,0.0015248006,0.00197289703
-1.9,3.24663523e-05,0.000264978805,0.000631972681,0.00106766403,0.00153282671,0.00198968325
-1.95,3.27042713e-05,0.000266027396,0.000634249967,0.00107185375,0.00154037408,0.00200501574
-2.0,3.29421148e-05,0.000267063639,0.000636479012,0.00107590721,0.00154751832,0.00201901897
-2.05,3.31799272e-05,0.000268088249,0.000638663054,0.00107983613,0.00155431606,0.00203184308
-2.1,3.34177515e-05,0.000269101887,0.000640805017,0.00108365072,0.00156081087,0.00204365146
-2.15,3.36556301e-05,0.00027010516,0.000642907551,0.00108735992,0.00156703729,0.00205460284
-2.2,3.38936055e-05,0.000271098634,0.000644973064,0.00109097163,0.00157302338,0.0020648364
-2.25,3.41317215e-05,0.000272082832,0.000647003754,0.00109449286,0.00157879249,0.00207446568
-2.3,3.4370024e-05,0.000273058247,0.000649001632,0.0010979299,0.00158436435,0.00208357982
-2.35,3.46085619e-05,0.00027402534,0.000650968542,0.00110128838,0.00158975592,0.00209224823
-2.4,3.48473889e-05,0.000274984549,0.000652906181,0.00110457338,0.00159498191,0.00210052551
-2.45,3.50865642e-05,0.00027593629,0.000654816114,0.0011077895,0.0016000552,0.0021084554
-2.5,3.53261546e-05,0.000276880969,0.000656699789,0.00111094094,0.00160498718,0.00211607371
-2.55,3.55662358e-05,0.000277818981,0.000658558548,0.0011140315,0.00160978795,0.00212341031
-2.6,3.58068942e-05,0.000278750721,0.000660393643,0.00111706468,0.00161446658,0.00213049052
-2.65,3.6048229e-05,0.00027967659,0.00066220624,0.00112004367,0.00161903117,0.00213733611
-2.7,3.62903539e-05,0.000280597,0.000663997439,0.00112297142,0.00162348905,0.00214396598
-2.75,3.65333997e-05,0.000281512388,0.000665768278,0.00112585063,0.00162784686,0.00215039674
-2.8,3.67775161e-05,0.000282423222,0.000667519748,0.00112868382,0.00163211064,0.00215664305
-2.85,3.70228743e-05,0.00028333001,0.000669252803,0.0011314733,0.00163628589,0.00216271796
-2.9,3.72696694e-05,0.000284233315,0.000670968376,0.00113422123,0.00164037763,0.00216863315
-2.95,3.7518123e-05,0.000285133765,0.00067266739,0.00113692963,0.0016443905,0.00217439912
-3.0,3.77684854e-05,0.000286032066,0.000674350776,0.00113960038,0.00164832872,0.00218002536
-3.05,3.80210387e-05,0.000286929016,0.000676019489,0.00114223525,0.00165219622,0.00218552045
-3.1,3.82760991e-05,0.000287825518,0.000677674532,0.00114483593,0.00165599662,0.00219089223
-3.15,3.85340197e-05,0.000288722599,0.000679316969,0.00114740401,0.00165973326,0.00219614782
-3.2,3.8795193e-05,0.00028962142,0.000680947955,0.00114994106,0.00166340925,0.00220129377
-3.25,3.90600536e-05,0.000290523297,0.000682568761,0.00115244859,0.00166702751,0.00220633607
-3.3,3.93290809e-05,0.000291429714,0.000684180796,0.0011549281,0.00167059074,0.00221128025
