vds,vb1,vb2,vb3,vb4,vb5,vb6
-0.0,0.0,0.0,0.0,0.0,0.0,0.0
-0.05,5.21375056e-07,1.63714779e-06,2.55724822e-06,3.32804189e-06,3.99194572e-06,4.57785791e-06
-0.1,9.28374202e-07,3.1417669e-06,4.9826799e-06,6.5276438e-06,7.85928559e-06,9.03480355e-06
-0.15,1.22692493e-06,4.51850804e-06,7.28072787e-06,9.60305338e-06,1.16061148e-05,1.33748079e-05
-0.2,1.42390483e-06,5.76989627e-06,9.45368989e-06,1.2556387e-05,1.52344011e-05,1.75997174e-05
-0.25,1.53507931e-06,6.89796089e-06,1.15033471e-05,1.53892476e-05,1.87456018e-05,2.17108709e-05
-0.3,1.59139888e-06,7.90463441e-06,1.34313419e-05,1.81031014e-05,2.21410414e-05,2.57094769e-05
-0.35,1.62413972e-06,8.7918823e-06,1.52392684e-05,2.06993667e-05,2.5421999e-05,2.95967013e-05
-0.4,1.64870126e-06,9.56180648e-06,1.69286946e-05,2.31794347e-05,2.85897294e-05,3.33736881e-05
-0.45,1.67015097e-06,1.02168234e-05,1.85011721e-05,2.55446753e-05,3.16454682e-05,3.70415645e-05
-0.5,1.69011984e-06,1.0760043e-05,1.99582422e-05,2.77964389e-05,3.45904337e-05,4.06014425e-05
-0.55,1.70921771e-06,1.1196101e-05,2.13014453e-05,2.99360576e-05,3.74258269e-05,4.4054419e-05
-0.6,1.72771698e-06,1.15328586e-05,2.25323349e-05,3.1964847e-05,4.01528327e-05,4.74015764e-05
-0.65,1.74576079e-06,1.1783987e-05,2.36525012e-05,3.38841077e-05,4.27726198e-05,5.06439831e-05
-0.7,1.76343539e-06,1.19700726e-05,2.4663611e-05,3.56951273e-05,4.52863421e-05,5.37826936e-05
-0.75,1.78079869e-06,1.21140753e-05,2.55674801e-05,3.73991837e-05,4.76951383e-05,5.68187487e-05
-0.8,1.7978929e-06,1.22339287e-05,2.63662064e-05,3.89975495e-05,5.00001336e-05,5.9753176e-05
-0.85,1.81475068e-06,1.23401587e-05,2.70624196e-05,4.04914978e-05,5.22024398e-05,6.25869904e-05
-0.9,1.83139838e-06,1.24381145e-05,2.76597482e-05,4.18823127e-05,5.43031571e-05,6.53211941e-05
-0.95,1.84785795e-06,1.25304733e-05,2.81636394e-05,4.31713032e-05,5.63033748e-05,6.79567773e-05
-1.0,1.86414807e-06,1.26186586e-05,2.85825565e-05,4.43598278e-05,5.82041737e-05,7.04947185e-05
-1.05,1.88028491e-06,1.27034998e-05,2.89289997e-05,4.54493336e-05,6.00066282e-05,7.29359851e-05
-1.1,1.89628264e-06,1.27855282e-05,2.92188874e-05,4.64414228e-05,6.17118098e-05,7.52815342e-05
-1.15,1.91215381e-06,1.28651142e-05,2.94684788e-05,4.73379666e-05,6.3320792e-05,7.7532313e-05
-1.2,1.92790959e-06,1.29425343e-05,2.96909137e-05,4.81413017e-05,6.48346572e-05,7.96892599e-05
-1.25,1.94356003e-06,1.30180058e-05,2.98950186e-05,4.88545623e-05,6.62545076e-05,8.17533058e-05
-1.3,1.95911419e-06,1.30917062e-05,3.00861495e-05,4.9482206e-05,6.7581481e-05,8.37253756e-05
-1.35,1.97458027e-06,1.31637847e-05,3.02674852e-05,5.00307146e-05,6.88167763e-05,8.56063898e-05
-1.4,1.98996576e-06,1.32343693e-05,3.04409735e-05,5.05091993e-05,6.99616934e-05,8.73972683e-05
-1.45,2.00527748e-06,1.33035716e-05,3.06078812e-05,5.09292531e-05,7.1017699e-05,8.90989331e-05
-1.5,2.02052168e-06,1.33714901e-05,3.07690886e-05,5.13035132e-05,7.19865317e-05,9.0712315e-05
-1.55,2.03570413e-06,1.34382123e-05,3.09252464e-05,5.16435084e-05,7.28703741e-05,9.22383606e-05
-1.6,2.05083011e-06,1.35038167e-05,3.10768608e-05,5.19581983e-05,7.36721205e-05,9.36780453e-05
-1.65,2.06590453e-06,1.35683743e-05,3.12243421e-05,5.22538153e-05,7.43957616e-05,9.50323903e-05
-1.7,2.0809319e-06,1.36319493e-05,3.13680324e-05,5.25344785e-05,7.50468439e-05,9.63024912e-05
-1.75,2.09591645e-06,1.36946003e-05,3.15082242e-05,5.2802908e-05,7.56328046e-05,9.74895598e-05
-1.8,2.11086208e-06,1.37563806e-05,3.16451719e-05,5.30609588e-05,7.61628125e-05,9.85949917e-05
-1.85,2.12577247e-06,1.38173395e-05,3.17790992e-05,5.33099563e-05,7.6646854e-05,9.96204702e-05
-1.9,2.14065103e-06,1.38775219e-05,3.19102052e-05,5.35508959e-05,7.70943656e-05,0.000100568125
-1.95,2.15550102e-06,1.39369696e-05,3.20386685e-05,5.37845586e-05,7.75131661e-05,0.000101440761
-2.0,2.1703255e-06,1.39957211e-05,3.21646502e-05,5.40115803e-05,7.79091347e-05,0.000102242156
-2.05,2.18512741e-06,1.4053812e-05,3.22882965e-05,5.42324937e-05,7.82864668e-05,0.000102977361
-2.1,2.1999096e-06,1.41112755e-05,3.24097406e-05,5.44477553e-05,7.86481232e-05,0.000103652844
-2.15,2.21467484e-06,1.41681424e-05,3.25291046e-05,5.46577627e-05,7.89962314e-05,0.000104276251
-2.2,2.2294259e-06,1.42244416e-05,3.26465002e-05,5.48628666e-05,7.93323725e-05,0.000104855691
-2.25,2.24416559e-06,1.42802001e-05,3.27620307e-05,5.506338e-05,7.96577677e-05,0.000105398815
-2.3,2.2588968e-06,1.43354432e-05,3.28757913e-05,5.52595837e-05,7.99733947e-05,0.000105912108
-2.35,2.27362257e-06,1.43901949e-05,3.29878701e-05,5.54517322e-05,8.02800612e-05,0.000106400657
-2.4,2.28834617e-06,1.44444779e-05,3.30983488e-05,5.56400565e-05,8.05784512e-05,0.000106868282
-2.45,2.30307115e-06,1.44983138e-05,3.32073036e-05,5.58247678e-05,8.08691552e-05,0.000107317829
-2.5,2.31780147e-06,1.45517236e-05,3.33148054e-05,5.60060596e-05,8.11526911e-05,0.00010775144
-2.55,2.33254153e-06,1.46047277e-05,3.34209203e-05,5.61841099e-05,8.14295185e-05,0.000108170775
-2.6,2.34729634e-06,1.4657346e-05,3.35257103e-05,5.63590831e-05,8.17000489e-05,0.000108577156
-2.65,2.36207157e-06,1.47095988e-05,3.36292339e-05,5.6531131e-05,8.19646535e-05,0.000108971669
-2.7,2.37687372e-06,1.47615066e-05,3.37315459e-05,5.67003947e-05,8.22236693e-05,0.00010935523
-2.75,2.3917102e-06,1.48130906e-05,3.38326985e-05,5.68670051e-05,8.24774038e-05,0.000109728622
-2.8,2.40658949e-06,1.48643732e-05,3.39327411e-05,5.70310842e-05,8.27261384e-05,0.000110092534
-2.85,2.42152126e-06,1.49153784e-05,3.40317215e-05,5.71927459e-05,8.29701321e-05,0.00011044757
-2.9,2.43651652e-06,1.49661325e-05,3.41296858e-05,5.73520967e-05,8.32096235e-05,0.000110794275
-2.95,2.45158778e-06,1.50166643e-05,3.42266793e-05,5.75092364e-05,8.34448336e-05,0.000111133137
-3.0,2.46674917e-06,1.50670059e-05,3.4322747e-05,5.76642591e-05,8.36759669e-05,0.000111464599
-3.05,2.48201665e-06,1.51171935e-05,3.44179342e-05,5.78172535e-05,8.39032138e-05,0.000111789066
-3.1,2.49740809e-06,1.51672676e-05,3.45122877e-05,5.79683035e-05,8.41267514e-05,0.000112106907
-3.15,2.5129435e-06,1.52172742e-05,3.46058562e-05,5.81174893e-05,8.43467451e-05,0.000112418463
-3.2,2.52864514e-06,1.52672654e-05,3.46986916e-05,5.82648879e-05,8.45633494e-05,0.000112724048
-3.25,2.5445377e-06,1.53172999e-05,3.47908498e-05,5.84105738e-05,8.47767092e-05,0.000113023951
-3.3,2.56064847e-06,1.53674442e-05,3.48823921e-05,5.855462e-05,8.49869607e-05,0.000113318443
