vds,vb1,vb2,vb3,vb4,vb5,vb6
-0.0,0.0,0.0,0.0,0.0,0.0,0.0
-0.05,3.82255991e-08,1.8523335e-07,3.30779988e-07,4.68397917e-07,5.99537407e-07,7.25699424e-07
-0.1,6.03426671e-08,3.49288015e-07,6.40174121e-07,9.15722533e-07,1.17842286e-06,1.43117519e-06
-0.15,6.98738033e-08,4.93468812e-07,9.29469147e-07,1.34325551e-06,1.73793454e-06,2.11770269e-06
-0.2,7.26941472e-08,6.18166536e-07,1.19902489e-06,1.75135086e-06,2.27842286e-06,2.78562956e-06
-0.25,7.35558299e-08,7.23583689e-07,1.44898615e-06,2.14014651e-06,2.80002203e-06,3.43508718e-06
-0.3,7.39479072e-08,8.09933225e-07,1.67944906e-06,2.50973004e-06,3.30281572e-06,4.06615638e-06
-0.35,7.41982924e-08,8.77558842e-07,1.89050075e-06,2.86017734e-06,3.78687562e-06,4.67890599e-06
-0.4,7.43920125e-08,9.271514e-07,2.08223007e-06,3.19156175e-06,4.25227053e-06,5.27340182e-06
-0.45,7.45572579e-08,9.60231045e-07,2.2547328e-06,3.5039563e-06,4.69906838e-06,5.84970881e-06
-0.5,7.47054794e-08,9.79865663e-07,2.40811767e-06,3.79743452e-06,5.12733686e-06,6.40789149e-06
-0.55,7.4842134e-08,9.90592003e-07,2.54251678e-06,4.07207087e-06,5.53714348e-06,6.94801411e-06
-0.6,7.49701775e-08,9.96627735e-07,2.65810566e-06,4.32794138e-06,5.92855573e-06,7.4701407e-06
-0.65,7.50913862e-08,1.00049389e-06,2.7551434e-06,4.56512452e-06,6.30164114e-06,7.97433504e-06
-0.7,7.52069226e-08,1.0033443e-06,2.83405475e-06,4.78370259e-06,6.65646741e-06,8.46066076e-06
-0.75,7.53176014e-08,1.00567046e-06,2.89559341e-06,4.98376389e-06,6.99310255e-06,8.92918129e-06
-0.8,7.54240263e-08,1.00769113e-06,2.94112766e-06,5.16540632e-06,7.31161508e-06,9.37995995e-06
-0.85,7.55266649e-08,1.00951248e-06,2.97297792e-06,5.32874348e-06,7.61207436e-06,9.81305995e-06
-0.9,7.56258918e-08,1.01119118e-06,2.99442445e-06,5.47391529e-06,7.89455099e-06,1.02285445e-05
-0.95,7.57220156e-08,1.01276027e-06,3.00898617e-06,5.60110682e-06,8.15911745e-06,1.06264767e-05
-1.0,7.58152964e-08,1.01424066e-06,3.01946312e-06,5.71058265e-06,8.40584899e-06,1.10069199e-05
-1.05,7.59059567e-08,1.01564652e-06,3.02761118e-06,5.80274899e-06,8.63482505e-06,1.13699376e-05
-1.1,7.59941896e-08,1.01698804e-06,3.03439423e-06,5.87826264e-06,8.84613136e-06,1.17155938e-05
-1.15,7.6080165e-08,1.01827289e-06,3.04032183e-06,5.93820127e-06,9.03986333e-06,1.2043953e-05
-1.2,7.61640332e-08,1.01950708e-06,3.04566955e-06,5.98426247e-06,9.21613148e-06,1.23550804e-05
-1.25,7.62459287e-08,1.0206955e-06,3.05059442e-06,6.01883997e-06,9.37507029e-06,1.26490428e-05
-1.3,7.6325972e-08,1.02184218e-06,3.05519174e-06,6.04475777e-06,9.51685314e-06,1.29259087e-05
-1.35,7.64042726e-08,1.02295054e-06,3.05952314e-06,6.06470032e-06,9.64171738e-06,1.31857493e-05
-1.4,7.64809294e-08,1.02402353e-06,3.06363092e-06,6.08074594e-06,9.75000663e-06,1.34286396e-05
-1.45,7.65560329e-08,1.02506369e-06,3.06754566e-06,6.09427606e-06,9.84223975e-06,1.36546605e-05
-1.5,7.66296661e-08,1.02607329e-06,3.07129049e-06,6.10613505e-06,9.91921448e-06,1.38639012e-05
-1.55,7.6701905e-08,1.02705432e-06,3.07488354e-06,6.11682654e-06,9.98213617e-06,1.40564636e-05
-1.6,7.67728197e-08,1.02800859e-06,3.07833949e-06,6.12665556e-06,1.0032714e-05,1.42324689e-05
-1.65,7.68424751e-08,1.02893771e-06,3.0816705e-06,6.13581396e-06,1.00731111e-05,1.4392068e-05
-1.7,7.69109313e-08,1.02984313e-06,3.08488685e-06,6.14442817e-06,1.01056745e-05,1.45354587e-05
-1.75,7.69782441e-08,1.03072619e-06,3.08799737e-06,6.15258574e-06,1.01325536e-05,1.46629122e-05
-1.8,7.70444657e-08,1.0315881e-06,3.09100975e-06,6.16035012e-06,1.01554395e-05,1.47748156e-05
-1.85,7.7109645e-08,1.03242997e-06,3.09393074e-06,6.16776926e-06,1.01755216e-05,1.48717345e-05
-1.9,7.71738278e-08,1.03325283e-06,3.09676636e-06,6.17488068e-06,1.01935864e-05,1.4954496e-05
-1.95,7.72370576e-08,1.03405762e-06,3.09952197e-06,6.18171462e-06,1.02101432e-05,1.50242738e-05
-2.0,7.72993758e-08,1.03484521e-06,3.1022024e-06,6.18829609e-06,1.02255253e-05,1.50826275e-05
-2.05,7.73608223e-08,1.03561642e-06,3.10481202e-06,6.19464615e-06,1.0239957e-05,1.51314262e-05
-2.1,7.74214359e-08,1.03637199e-06,3.10735481e-06,6.20078285e-06,1.02535949e-05,1.51726393e-05
-2.15,7.74812548e-08,1.03711264e-06,3.1098344e-06,6.20672188e-06,1.02665527e-05,1.52080767e-05
-2.2,7.75403177e-08,1.03783902e-06,3.11225412e-06,6.21247699e-06,1.02789158e-05,1.52392112e-05
-2.25,7.75986641e-08,1.03855175e-06,3.11461702e-06,6.21806038e-06,1.02907509e-05,1.52671373e-05
-2.3,7.7656335e-08,1.03925143e-06,3.11692593e-06,6.22348295e-06,1.03021114e-05,1.52926261e-05
-2.35,7.77133747e-08,1.03993861e-06,3.11918346e-06,6.22875448e-06,1.03130413e-05,1.531621e-05
-2.4,7.77698308e-08,1.04061384e-06,3.12139202e-06,6.23388382e-06,1.03235774e-05,1.53382577e-05
-2.45,7.78257564e-08,1.04127763e-06,3.12355388e-06,6.23887901e-06,1.03337511e-05,1.53590302e-05
-2.5,7.7881211e-08,1.04193053e-06,3.12567112e-06,6.24374739e-06,1.03435896e-05,1.53787174e-05
-2.55,7.79362618e-08,1.04257304e-06,3.12774573e-06,6.24849567e-06,1.03531166e-05,1.53974619e-05
-2.6,7.7990986e-08,1.04320572e-06,3.12977955e-06,6.25313003e-06,1.03623532e-05,1.5415374e-05
-2.65,7.80454722e-08,1.04382912e-06,3.13177433e-06,6.25765614e-06,1.03713181e-05,1.54325415e-05
-2.7,7.80998227e-08,1.04444385e-06,3.13373175e-06,6.26207927e-06,1.03800281e-05,1.5449036e-05
-2.75,7.81541551e-08,1.04505056e-06,3.1356534e-06,6.2664043e-06,1.03884983e-05,1.54649171e-05
-2.8,7.82086052e-08,1.04564999e-06,3.13754084e-06,6.27063575e-06,1.03967425e-05,1.54802355e-05
-2.85,7.82633291e-08,1.04624296e-06,3.13939561e-06,6.27477784e-06,1.04047731e-05,1.54950346e-05
-2.9,7.83185058e-08,1.04683039e-06,3.14121926e-06,6.27883454e-06,1.04126017e-05,1.55093522e-05
-2.95,7.83743397e-08,1.04741335e-06,3.14301334e-06,6.28280956e-06,1.04202387e-05,1.55232219e-05
-3.0,7.84310638e-08,1.04799307e-06,3.14477951e-06,6.28670639e-06,1.04276937e-05,1.5536673e-05
-3.05,7.84889418e-08,1.04857095e-06,3.14651951e-06,6.29052836e-06,1.04349758e-05,1.5549732e-05
-3.1,7.85482718e-08,1.04914862e-06,3.14823522e-06,6.29427866e-06,1.04420932e-05,1.55624228e-05
-3.15,7.86093886e-08,1.04972797e-06,3.14992873e-06,6.29796037e-06,1.04490535e-05,1.55747669e-05
-3.2,7.8672667e-08,1.05031114e-06,3.15160239e-06,6.30157651e-06,1.0455864e-05,1.55867838e-05
-3.25,7.87385248e-08,1.05090062e-06,3.15325885e-06,6.30513009e-06,1.04625312e-05,1.55984914e-05
-3.3,7.88074257e-08,1.05149923e-06,3.15490114e-06,6.30862415e-06,1.04690615e-05,1.5609906e-05
