vds,vb1,vb2,vb3,vb4,vb5,vb6
-0.0,0.0,0.0,0.0,0.0,0.0,0.0
-0.05,8.87488083e-07,3.15385974e-06,5.0129893e-06,6.54529717e-06,7.84038271e-06,8.95948342e-06
-0.1,1.55225355e-06,6.03958961e-06,9.75948401e-06,1.28321395e-05,1.54316193e-05,1.76790056e-05
-0.15,2.00819271e-06,8.66670293e-06,1.42485057e-05,1.88691252e-05,2.27819558e-05,2.61665225e-05
-0.2,2.27692193e-06,1.10404648e-05,1.84848015e-05,2.46605873e-05,2.98953814e-05,3.44257399e-05
-0.25,2.40910794e-06,1.31651603e-05,2.24720816e-05,3.02098286e-05,3.67748634e-05,4.24593484e-05
-0.3,2.47530491e-06,1.50449107e-05,2.62137757e-05,3.55198765e-05,4.34231011e-05,5.02697768e-05
-0.35,2.51909569e-06,1.66839704e-05,2.97132135e-05,4.05936595e-05,4.98427021e-05,5.78593683e-05
-0.4,2.5552766e-06,1.80870194e-05,3.29736724e-05,4.54340498e-05,5.60362239e-05,6.52304218e-05
-0.45,2.58821323e-06,1.92597191e-05,3.59983964e-05,5.00438743e-05,6.20061845e-05,7.2385202e-05
-0.5,2.61938804e-06,2.02099416e-05,3.87906127e-05,5.44259192e-05,6.77550649e-05,7.93259422e-05
-0.55,2.64941601e-06,2.0950456e-05,4.13535552e-05,5.85829326e-05,7.32853114e-05,8.60548457e-05
-0.6,2.67860403e-06,2.15038464e-05,4.36905009e-05,6.2517628e-05,7.8599336e-05,9.25740862e-05
-0.65,2.70713053e-06,2.19073027e-05,4.58048336e-05,6.62326877e-05,8.36995182e-05,9.88858085e-05
-0.7,2.73511231e-06,2.22082586e-05,4.77001551e-05,6.97307685e-05,8.85882056e-05,0.000104992129
-0.75,2.76263283e-06,2.24487872e-05,4.93804896e-05,7.30145088e-05,9.32677155e-05,0.000110895137
-0.8,2.78975556e-06,2.26555957e-05,5.08506694e-05,7.60865388e-05,9.77403366e-05,0.000116596895
-0.85,2.81653102e-06,2.28425718e-05,5.21170663e-05,7.89494964e-05,0.000102008331,0.000122099439
-0.9,2.84300066e-06,2.30165901e-05,5.31889378e-05,8.16060513e-05,0.000106073936,0.000127404779
-0.95,2.86919932e-06,2.31812265e-05,5.40806199e-05,8.40589425e-05,0.000109939369,0.000132514902
-1.0,2.89515679e-06,2.33385207e-05,5.4814071e-05,8.6311041e-05,0.000113606829,0.000137431769
-1.05,2.92089886e-06,2.34897569e-05,5.54193765e-05,8.83654539e-05,0.000117078504,0.000142157323
-1.1,2.94644811e-06,2.36358179e-05,5.59302197e-05,9.02257028e-05,0.000120356578,0.000146693481
-1.15,2.97182447e-06,2.3777354e-05,5.63762318e-05,9.18960336e-05,0.000123443245,0.000151042143
-1.2,2.99704564e-06,2.39148707e-05,5.67785211e-05,9.33819507e-05,0.000126340722,0.000155205192
-1.25,3.02212745e-06,2.4048776e-05,5.71502751e-05,9.46910987e-05,0.000129051276,0.000159184495
-1.3,3.04708413e-06,2.41794092e-05,5.74993837e-05,9.58345585e-05,0.000131577267,0.000162981907
-1.35,3.07192852e-06,2.43070579e-05,5.78306709e-05,9.6828278e-05,0.000133921205,0.000166599278
-1.4,3.09667224e-06,2.44319701e-05,5.81472556e-05,9.76935957e-05,0.000136085857,0.000170038455
-1.45,3.12132587e-06,2.4554362e-05,5.84512906e-05,9.84554186e-05,0.000138074411,0.000173301294
-1.5,3.14589908e-06,2.46744243e-05,5.87443556e-05,9.91381558e-05,0.000139890744,0.000176389673
-1.55,3.17040068e-06,2.47923261e-05,5.90276699e-05,9.97619539e-05,0.000141539862,0.000179305508
-1.6,3.19483878e-06,2.49082187e-05,5.93022123e-05,0.000100341419,0.000143028552,0.000182050781
-1.65,3.21922085e-06,2.50222378e-05,5.95687924e-05,0.000100886434,0.000144366255,0.000184627586
-1.7,3.24355376e-06,2.5134506e-05,5.98280951e-05,0.000101403599,0.000145565919,0.00018703819
-1.75,3.26784389e-06,2.52451346e-05,6.00807096e-05,0.000101897433,0.000146644216,0.000189285138
-1.8,3.29209716e-06,2.53542246e-05,6.03271494e-05,0.000102371166,0.000147620403,0.000191371413
-1.85,3.31631908e-06,2.54618685e-05,6.0567867e-05,0.000102827219,0.000148513868,0.000193300683
-1.9,3.34051482e-06,2.55681508e-05,6.08032639e-05,0.000103267481,0.000149341617,0.000195077675
-1.95,3.36468925e-06,2.56731491e-05,6.10336993e-05,0.000103693483,0.000150117011,0.000196708694
-2.0,3.388847e-06,2.57769351e-05,6.12594961e-05,0.000104106497,0.000150849873,0.00019820223
-2.05,3.41299252e-06,2.58795747e-05,6.14809459e-05,0.000104507605,0.000151547259,0.000199569444
-2.1,3.43713013e-06,2.5981129e-05,6.16983136e-05,0.000104897738,0.000152214293,0.000200824134
-2.15,3.46126408e-06,2.60816548e-05,6.19118403e-05,0.000105277714,0.000152854796,0.000201981796
-2.2,3.48539866e-06,2.61812049e-05,6.21217462e-05,0.000105648253,0.000153471726,0.00020305796
-2.25,3.50953827e-06,2.62798285e-05,6.23282336e-05,0.000106009997,0.000154067442,0.000204066542
-2.3,3.53368747e-06,2.63775719e-05,6.2531488e-05,0.000106363522,0.000154643888,0.00020501895
-2.35,3.55785118e-06,2.64744787e-05,6.27316808e-05,0.000106709344,0.000155202696,0.000205924031
-2.4,3.58203471e-06,2.65705902e-05,6.29289699e-05,0.000107047935,0.000155745269,0.000206788507
-2.45,3.60624394e-06,2.6665946e-05,6.3123502e-05,0.000107379721,0.000156272824,0.000207617506
-2.5,3.63048544e-06,2.67605843e-05,6.33154131e-05,0.000107705091,0.000156786434,0.00020841502
-2.55,3.65476668e-06,2.68545425e-05,6.35048299e-05,0.000108024403,0.00015728705,0.00020918424
-2.6,3.67909611e-06,2.69478578e-05,6.36918706e-05,0.000108337985,0.000157775523,0.00020992778
-2.65,3.70348344e-06,2.70405677e-05,6.38766462e-05,0.000108646137,0.00015825262,0.000210647832
-2.7,3.72793977e-06,2.71327107e-05,6.40592608e-05,0.000108949139,0.000158719034,0.000211346268
-2.75,3.75247783e-06,2.72243273e-05,6.42398134e-05,0.000109247249,0.000159175393,0.000212024713
-2.8,3.77711219e-06,2.73154605e-05,6.44183979e-05,0.000109540706,0.000159622272,0.000212684592
-2.85,3.80185949e-06,2.74061569e-05,6.4595105e-05,0.000109829731,0.000160060197,0.000213327169
-2.9,3.82673867e-06,2.74964677e-05,6.47700227e-05,0.000110114534,0.00016048965,0.000213953574
-2.95,3.85177122e-06,2.75864499e-05,6.49432377e-05,0.000110395306,0.000160911075,0.000214564822
-3.0,3.87698144e-06,2.76761671e-05,6.51148367e-05,0.000110672231,0.000161324882,0.000215161833
-3.05,3.90239667e-06,2.77656911e-05,6.52849081e-05,0.00011094548,0.000161731451,0.000215745439
-3.1,3.92804758e-06,2.7855103e-05,6.54535435e-05,0.000111215214,0.000162131134,0.000216316404
-3.15,3.95396838e-06,2.79444949e-05,6.56208394e-05,0.000111481588,0.000162524256,0.000216875422
-3.2,3.98019712e-06,2.80339707e-05,6.57868994e-05,0.00011174475,0.000162911123,0.000217423133
-3.25,4.00677593e-06,2.81236483e-05,6.59518365e-05,0.000112004846,0.00016329202,0.000217960127
-3.3,4.03375129e-06,2.82136604e-05,6.61157754e-05,0.000112262017,0.000163667211,0.000218486947
