vds,vb1,vb2,vb3,vb4,vb5,vb6
-0.0,0.0,0.0,0.0,0.0,0.0,0.0
-0.05,3.57757169e-07,1.59367275e-06,2.68440839e-06,3.62155658e-06,4.4367463e-06,5.1546866e-06
-0.1,5.93263002e-07,3.0325082e-06,5.21570033e-06,7.09542403e-06,8.73189202e-06,1.01737749e-05
-0.15,7.21521638e-07,4.32329985e-06,7.60048605e-06,1.04280868e-05,1.28918167e-05,1.5063556e-05
-0.2,7.72671977e-07,5.46866094e-06,9.84115273e-06,1.3621805e-05,1.69186766e-05,1.98260988e-05
-0.25,7.90123513e-07,6.4702991e-06,1.19391001e-05,1.66778493e-05,2.08136393e-05,2.4462484e-05
-0.3,7.98032931e-07,7.32985287e-06,1.38954961e-05,1.95972536e-05,2.45776361e-05,2.89735577e-05
-0.35,8.0317102e-07,8.04924915e-06,1.57114551e-05,2.23809917e-05,2.82115384e-05,3.33601065e-05
-0.4,8.07254291e-07,8.63116472e-06,1.73880847e-05,2.50300177e-05,3.17161983e-05,3.76228984e-05
-0.45,8.1081371e-07,9.0800396e-06,1.89265037e-05,2.75452771e-05,3.5092458e-05,4.17626926e-05
-0.5,8.1405473e-07,9.40436948e-06,2.03278577e-05,2.99277095e-05,3.83411527e-05,4.57802415e-05
-0.55,8.1707341e-07,9.62074945e-06,2.1593344e-05,3.21782505e-05,4.14631112e-05,4.96762917e-05
-0.6,8.19922088e-07,9.75640159e-06,2.27242533e-05,3.42978336e-05,4.44591563e-05,5.3451584e-05
-0.65,8.22632953e-07,9.84253551e-06,2.37220458e-05,3.62873928e-05,4.73301051e-05,5.71068535e-05
-0.7,8.25227744e-07,9.90266198e-06,2.45884962e-05,3.81478665e-05,5.00767696e-05,6.064283e-05
-0.75,8.27722223e-07,9.94956604e-06,2.53259745e-05,3.98802025e-05,5.26999571e-05,6.40602376e-05
-0.8,8.30128432e-07,9.98922962e-06,2.5937997e-05,4.14853673e-05,5.5200471e-05,6.73597958e-05
-0.85,8.32455946e-07,1.00244399e-05,2.64302669e-05,4.29643587e-05,5.7579112e-05,7.05422186e-05
-0.9,8.34712601e-07,1.00565914e-05,2.68123803e-05,4.43182275e-05,5.98366789e-05,7.36082156e-05
-0.95,8.36904955e-07,1.00864522e-05,2.70996842e-05,4.55481129e-05,6.19739708e-05,7.65584917e-05
-1.0,8.39038591e-07,1.01144881e-05,2.73131663e-05,4.66553023e-05,6.39917894e-05,7.9393748e-05
-1.05,8.41118329e-07,1.01410067e-05,2.74753537e-05,4.76413355e-05,6.58909425e-05,8.21146817e-05
-1.1,8.43148374e-07,1.0166226e-05,2.76047861e-05,4.85081878e-05,6.76722492e-05,8.47219867e-05
-1.15,8.45132427e-07,1.0190309e-05,2.77137626e-05,4.92585947e-05,6.93365475e-05,8.72163548e-05
-1.2,8.4707377e-07,1.02133834e-05,2.78094963e-05,4.98966073e-05,7.08847057e-05,8.9598476e-05
-1.25,8.48975333e-07,1.02355522e-05,2.78960744e-05,5.04284657e-05,7.23176401e-05,9.186904e-05
-1.3,8.50839745e-07,1.02569008e-05,2.79758721e-05,5.0863693e-05,7.36363433e-05,9.40287378e-05
-1.35,8.52669378e-07,1.02775015e-05,2.8050348e-05,5.1215797e-05,7.48419285e-05,9.60782639e-05
-1.4,8.54466378e-07,1.02974162e-05,2.81204577e-05,5.15014457e-05,7.59357032e-05,9.80183194e-05
-1.45,8.56232698e-07,1.03166985e-05,2.81868673e-05,5.17377257e-05,7.69192907e-05,9.98496165e-05
-1.5,8.57970118e-07,1.03353958e-05,2.82500667e-05,5.19391033e-05,7.77948302e-05,0.000101572885
-1.55,8.59680267e-07,1.03535497e-05,2.83104328e-05,5.21160686e-05,7.85653014e-05,0.000103188881
-1.6,8.61364642e-07,1.03711974e-05,2.83682663e-05,5.22755423e-05,7.92350182e-05,0.000104698403
-1.65,8.6302462e-07,1.03883722e-05,2.84238132e-05,5.24219359e-05,7.98102839e-05,0.000106102309
-1.7,8.64661471e-07,1.04051041e-05,2.84772799e-05,5.25580889e-05,8.03000179e-05,0.000107401554
-1.75,8.66276374e-07,1.04214201e-05,2.8528842e-05,5.26858947e-05,8.07158726e-05,0.00010859724
-1.8,8.67870422e-07,1.04373449e-05,2.85786514e-05,5.28066746e-05,8.10713029e-05,0.000109690693
-1.85,8.69444636e-07,1.0452901e-05,2.86268408e-05,5.29213947e-05,8.13796928e-05,0.000110683598
-1.9,8.70999972e-07,1.04681089e-05,2.86735269e-05,5.3030791e-05,8.16525427e-05,0.00011157819
-1.95,8.72537333e-07,1.04829874e-05,2.87188137e-05,5.31354446e-05,8.18986441e-05,0.000112377554
-2.0,8.74057576e-07,1.04975539e-05,2.87627939e-05,5.32358281e-05,8.21242457e-05,0.000113086027
-2.05,8.75561524e-07,1.05118243e-05,2.88055511e-05,5.33323344e-05,8.233366e-05,0.00011370965
-2.1,8.77049978e-07,1.05258134e-05,2.88471604e-05,5.34252963e-05,8.25298751e-05,0.000114256484
-2.15,8.78523725e-07,1.0539535e-05,2.88876904e-05,5.35150002e-05,8.27150127e-05,0.000114736462
-2.2,8.79983557e-07,1.05530019e-05,2.89272032e-05,5.36016953e-05,8.28906304e-05,0.00011516057
-2.25,8.81430284e-07,1.0566226e-05,2.89657557e-05,5.36856008e-05,8.30579128e-05,0.000115539548
-2.3,8.82864749e-07,1.05792185e-05,2.90034e-05,5.37669107e-05,8.32177904e-05,0.000115882745
-2.35,8.84287846e-07,1.059199e-05,2.90401842e-05,5.38457983e-05,8.33710156e-05,0.000116197589
-2.4,8.85700546e-07,1.06045507e-05,2.90761523e-05,5.39224191e-05,8.35182107e-05,0.000116489652
-2.45,8.87103911e-07,1.06169102e-05,2.91113452e-05,5.39969133e-05,8.36599006e-05,0.00011676301
-2.5,8.88499126e-07,1.06290782e-05,2.91458007e-05,5.40694083e-05,8.37965351e-05,0.000117020651
-2.55,8.8988752e-07,1.06410641e-05,2.91795541e-05,5.41400195e-05,8.39285045e-05,0.000117264802
-2.6,8.91270595e-07,1.06528772e-05,2.92126381e-05,5.42088527e-05,8.40561509e-05,0.000117497166
-2.65,8.92650057e-07,1.06645273e-05,2.92450836e-05,5.42760046e-05,8.41797772e-05,0.000117719082
-2.7,8.94027844e-07,1.06760247e-05,2.92769196e-05,5.43415642e-05,8.4299653e-05,0.000117931627
-2.75,8.95406162e-07,1.06873801e-05,2.93081734e-05,5.44056133e-05,8.44160201e-05,0.000118135692
-2.8,8.96787514e-07,1.06986054e-05,2.93388714e-05,5.44682277e-05,8.45290964e-05,0.000118332022
-2.85,8.98174738e-07,1.07097134e-05,2.93690389e-05,5.45294775e-05,8.46390793e-05,0.000118521257
-2.9,8.99571038e-07,1.07207188e-05,2.93987009e-05,5.45894277e-05,8.47461482e-05,0.00011870395
-2.95,9.00980022e-07,1.07316377e-05,2.94278821e-05,5.46481392e-05,8.48504669e-05,0.000118880583
-3.0,9.02405735e-07,1.07424885e-05,2.94566075e-05,5.47056685e-05,8.49521853e-05,0.000119051584
-3.05,9.03852695e-07,1.0753292e-05,2.94849032e-05,5.4762069e-05,8.50514412e-05,0.000119217331
-3.1,9.05325924e-07,1.07640721e-05,2.95127964e-05,5.4817391e-05,8.51483614e-05,0.000119378166
-3.15,9.06830989e-07,1.07748556e-05,2.95403163e-05,5.48716825e-05,8.5243063e-05,0.000119534395
-3.2,9.08374024e-07,1.07856731e-05,2.9567495e-05,5.49249895e-05,8.53356546e-05,0.000119686293
-3.25,9.09961771e-07,1.07965593e-05,2.95943678e-05,5.49773566e-05,8.54262367e-05,0.000119834114
-3.3,9.11601604e-07,1.08075532e-05,2.96209743e-05,5.50288279e-05,8.55149032e-05,0.000119978087
