vds,vb1,vb2,vb3,vb4,vb5,vb6
-0.0,0.0,0.0,0.0,0.0,0.0,0.0
-0.05,3.33500888e-06,1.68847824e-05,2.87123974e-05,3.86254043e-05,4.70297003e-05,5.42379363e-05
-0.1,5.3750163e-06,3.20421226e-05,5.57266201e-05,7.56273711e-05,9.25180852e-05,0.000107014931
-0.15,6.33822077e-06,4.55434978e-05,8.11115134e-05,0.000111072937,0.000136530696,0.000158395276
-0.2,6.66153599e-06,5.74187423e-05,0.000104893659,0.000144986867,0.000179090819,0.000208401024
-0.25,6.7731867e-06,6.76890236e-05,0.000127089739,0.000177384,0.000220211827,0.000257044328
-0.3,6.83127856e-06,7.6375737e-05,0.000147714097,0.000208276779,0.000259904714,0.000304334979
-0.35,6.8726056e-06,8.35053777e-05,0.00016678054,0.000237677019,0.000298179846,0.000350282154
-0.4,6.9067405e-06,8.91174613e-05,0.000184302826,0.000265596316,0.000335047376,0.00039489483
-0.45,6.93691037e-06,9.32828124e-05,0.000200294884,0.000292046152,0.000370517341,0.000438181875
-0.5,6.96448505e-06,9.61421635e-05,0.000214771042,0.000317037934,0.000404599683,0.000480152079
-0.55,6.99016278e-06,9.79541837e-05,0.000227746403,0.000340583014,0.000437304262,0.000520814155
-0.6,7.01435335e-06,9.90720684e-05,0.000239237511,0.000362692715,0.000468640859,0.00056017674
-0.65,7.03732408e-06,9.9809719e-05,0.000249263608,0.000383378367,0.000498619179,0.000598248405
-0.7,7.05926351e-06,0.000100355457,0.000257849082,0.000402651361,0.000527248863,0.000635037647
-0.75,7.08031242e-06,0.000100799567,0.00026502833,0.000420523226,0.000554539487,0.000670552898
-0.8,7.10058046e-06,0.000101183427,0.000270855267,0.000437005761,0.000580500578,0.000704802523
-0.85,7.1201557e-06,0.000101527195,0.000275420183,0.000452111228,0.000605141625,0.000737794824
-0.9,7.13911059e-06,0.000101841716,0.000278872107,0.000465852688,0.000628472096,0.000769538045
-0.95,7.15750584e-06,0.000102133451,0.000281428285,0.000478244565,0.000650501461,0.00080004037
-1.0,7.17539308e-06,0.000102406607,0.000283341255,0.000489303619,0.00067123923,0.000829309933
-1.05,7.1928167e-06,0.000102664129,0.000284834506,0.000499050681,0.000690694999,0.000857354822
-1.1,7.20981528e-06,0.000102908193,0.000286063782,0.000507513748,0.000708878527,0.000884183082
-1.15,7.22642262e-06,0.000103140484,0.000287122691,0.000514733411,0.000725799843,0.00090980273
-1.2,7.24266852e-06,0.000103362345,0.000288064762,0.000520771695,0.000741469424,0.000934221762
-1.25,7.25857946e-06,0.000103574874,0.000288921201,0.000525724028,0.000755898459,0.000957448173
-1.3,7.27417905e-06,0.000103778989,0.000289711217,0.000529728957,0.000769099291,0.000979489974
-1.35,7.28948848e-06,0.000103975466,0.000290447413,0.000532963341,0.000781086133,0.00100035523
-1.4,7.30452684e-06,0.000104164973,0.00029113858,0.000535615355,0.000791876259,0.00102005209
-1.45,7.31931137e-06,0.000104348088,0.000291791175,0.000537849695,0.000801491993,0.00103858886
-1.5,7.33385775e-06,0.000104525315,0.000292410148,0.000539788884,0.000809963972,0.00105597411
-1.55,7.34818025e-06,0.000104697101,0.000292999417,0.000541515318,0.000817336213,0.00107221677
-1.6,7.3622919e-06,0.000104863841,0.000293562172,0.000543082347,0.000823673056,0.00108732637
-1.65,7.37620465e-06,0.000105025886,0.000294101059,0.000544524809,0.000829066257,0.00110131336
-1.7,7.38992949e-06,0.000105183553,0.000294618311,0.000545866249,0.000833637309,0.0011141896
-1.75,7.40347656e-06,0.000105337127,0.00029511584,0.000547123285,0.000837528798,0.0011259692
-1.8,7.41685524e-06,0.000105486863,0.000295595296,0.000548308159,0.000840884965,0.00113666976
-1.85,7.43007425e-06,0.000105632995,0.000296058122,0.000549430243,0.00084383178,0.0011463144
-1.9,7.44314177e-06,0.000105775735,0.000296505586,0.000550496943,0.000846467092,0.00115493479
-1.95,7.45606547e-06,0.000105915278,0.00029693881,0.000551514264,0.000848861633,0.00116257532
-2.0,7.46885264e-06,0.0001060518,0.000297358794,0.000552487177,0.000851065123,0.00116929799
-2.05,7.4815103e-06,0.000106185466,0.000297766434,0.000553419868,0.000853112673,0.00117518592
-2.1,7.49404525e-06,0.000106316425,0.000298162535,0.000554315912,0.000855029659,0.00118034231
-2.15,7.50646421e-06,0.000106444818,0.000298547823,0.000555178393,0.000856834996,0.00118488214
-2.2,7.51877397e-06,0.000106570772,0.00029892296,0.00055601,0.000858543227,0.00118891882
-2.25,7.53098146e-06,0.000106694409,0.000299288543,0.000556813097,0.000860165859,0.00119255214
-2.3,7.54309394e-06,0.000106815842,0.000299645123,0.000557589774,0.000861712218,0.00119586247
-2.35,7.55511916e-06,0.000106935177,0.000299993198,0.00055834189,0.000863190018,0.00119891111
-2.4,7.56706552e-06,0.000107052518,0.000300333232,0.000559071111,0.000864605748,0.00120174382
-2.45,7.5789423e-06,0.000107167961,0.000300665646,0.000559778934,0.000865964941,0.00120439481
-2.5,7.59075981e-06,0.000107281604,0.000300990834,0.00056046671,0.00086727237,0.0012068901
-2.55,7.60252965e-06,0.000107393542,0.000301309159,0.000561135664,0.000868532194,0.00120924989
-2.6,7.61426496e-06,0.000107503873,0.000301620959,0.000561786909,0.00086974806,0.00121149022
-2.65,7.62598064e-06,0.000107612696,0.00030192655,0.000562421463,0.000870923199,0.00121362414
-2.7,7.63769361e-06,0.000107720117,0.00030222623,0.000563040256,0.000872060481,0.00121566243
-2.75,7.64942312e-06,0.000107826249,0.000302520283,0.000563644142,0.000873162475,0.00121761418
-2.8,7.66119098e-06,0.000107931217,0.000302808978,0.000564233907,0.00087423149,0.00121948712
-2.85,7.67302187e-06,0.000108035156,0.000303092579,0.000564810279,0.000875269611,0.00122128791
-2.9,7.68494364e-06,0.00010813822,0.000303371345,0.000565373929,0.000876278726,0.00122302237
-2.95,7.69698756e-06,0.00010824058,0.000303645535,0.000565925483,0.000877260554,0.00122469558
-3.0,7.70918865e-06,0.000108342432,0.000303915414,0.000566465525,0.00087821666,0.00122631205
-3.05,7.72158593e-06,0.000108443996,0.000304181259,0.000566994603,0.000879148481,0.00122787579
-3.1,7.73422273e-06,0.000108545524,0.000304443364,0.000567513235,0.000880057332,0.00122939039
-3.15,7.74714695e-06,0.000108647299,0.000304702045,0.000568021915,0.000880944425,0.00123085905
-3.2,7.76041133e-06,0.000108749645,0.000304957652,0.00056852112,0.000881810878,0.00123228469
-3.25,7.7740737e-06,0.000108852926,0.000305210572,0.000569011316,0.000882657727,0.00123366993
-3.3,7.78819722e-06,0.000108957551,0.000305461241,0.000569492966,0.000883485934,0.00123501718
