vds,vb1,vb2,vb3,vb4,vb5,vb6
-0.0,0.0,0.0,0.0,0.0,0.0,0.0
-0.05,4.81700219e-06,1.71299166e-05,2.69754603e-05,3.48554916e-05,4.13057298e-05,4.66902914e-05
-0.1,8.39274949e-06,3.27648561e-05,5.24762217e-05,6.82949232e-05,8.12618182e-05,9.20966034e-05
-0.15,1.08075581e-05,4.6957223e-05,7.65512039e-05,0.000100364226,0.000119911721,0.000136260361
-0.2,1.21963201e-05,5.97380847e-05,9.92278548e-05,0.000131087935,0.000157277562,0.000179201707
-0.25,1.28666752e-05,7.11335643e-05,0.000120528341,0.000160485361,0.000193376303,0.00022093567
-0.3,1.32097212e-05,8.11690151e-05,0.000140473338,0.000188574373,0.000228223522,0.000261475943
-0.35,1.34441072e-05,8.98707072e-05,0.000159082942,0.00021537228,0.000261834292,0.000300835753
-0.4,1.3640198e-05,9.72677334e-05,0.000176376914,0.000240896046,0.000294223387,0.00033902808
-0.45,1.38188929e-05,0.000103395829,0.000192374794,0.000265162351,0.000325405344,0.0003760657
-0.5,1.39875747e-05,0.000108305944,0.000207096009,0.000288187613,0.000355394472,0.000411961203
-0.55,1.4149474e-05,0.000112082621,0.000220560022,0.000309988008,0.000384204864,0.000446727
-0.6,1.43062947e-05,0.000114874378,0.000232786594,0.00033057949,0.000411850405,0.000480375326
-0.65,1.44590766e-05,0.000116911405,0.000243796218,0.000349977818,0.000438344777,0.000512918245
-0.7,1.46085255e-05,0.000118457021,0.000253610922,0.000368198586,0.000463701467,0.000544367653
-0.75,1.47551578e-05,0.00011971866,0.000262255752,0.000385257279,0.000487933777,0.000574735284
-0.8,1.48993718e-05,0.00012081758,0.000269761631,0.000401169338,0.000511054836,0.000604032711
-0.85,1.5041486e-05,0.000121815381,0.000276170767,0.000415950272,0.000533077606,0.000632271353
-0.9,1.51817622e-05,0.000122743398,0.000281546272,0.000429615827,0.000554014908,0.000659462479
-0.95,1.53204197e-05,0.000123618866,0.000285986067,0.00044218226,0.000573879431,0.000685617214
-1.0,1.54576451e-05,0.000124452264,0.000289633563,0.0004536668,0.000592683771,0.000710746544
-1.05,1.5593599e-05,0.000125250584,0.000292667263,0.000464088436,0.000610440461,0.000734861325
-1.1,1.57284211e-05,0.000126018853,0.00029526325,0.000473469284,0.00062716203,0.000757972288
-1.15,1.58622338e-05,0.00012676089,0.000297559141,0.000481836982,0.000642861083,0.000780090053
-1.2,1.5995145e-05,0.000127479721,0.000299645945,0.000489228748,0.000657550422,0.00080122514
-1.25,1.61272506e-05,0.000128177818,0.000301579565,0.000495697698,0.000671243237,0.000821387986
-1.3,1.62586361e-05,0.000128857239,0.000303394481,0.000501320725,0.000683953402,0.00084058897
-1.35,1.63893783e-05,0.000129519733,0.000305113003,0.000506203653,0.000695695962,0.000858838439
-1.4,1.65195462e-05,0.000130166802,0.000306750491,0.000510475673,0.000706487925,0.000876146757
-1.45,1.66492021e-05,0.000130799754,0.000308318163,0.000514270076,0.000716349567,0.000892524364
-1.5,1.67784028e-05,0.00013141973,0.000309824614,0.000517702263,0.00072530656,0.00090798187
-1.55,1.69071996e-05,0.000132027742,0.000311276686,0.000520859179,0.000733393238,0.000922530188
-1.6,1.70356395e-05,0.000132624685,0.000312679981,0.000523801407,0.000740657093,0.000936180751
-1.65,1.71637657e-05,0.00013321136,0.000314039186,0.000526570342,0.000747163451,0.00094894583
-1.7,1.72916176e-05,0.000133788487,0.000315358287,0.000529194857,0.00075299735,0.000960839051
-1.75,1.74192317e-05,0.000134356711,0.000316640721,0.000531695883,0.000758258571,0.000971876204
-1.8,1.75466414e-05,0.000134916619,0.00031788948,0.000534089245,0.00076304943,0.000982076502
-1.85,1.76738782e-05,0.000135468743,0.00031910719,0.000536387366,0.000767461471,0.000991464499
-1.9,1.7800971e-05,0.000136013565,0.000320296176,0.000538600297,0.000771568162,0.00100007276
-1.95,1.79279472e-05,0.00013655153,0.000321458506,0.000540736374,0.000775424777,0.00100794503
-2.0,1.80548326e-05,0.000137083042,0.00032259603,0.000542802639,0.00077907203,0.00101513882
-2.05,1.81816519e-05,0.000137608473,0.000323710412,0.000544805128,0.000782540191,0.00102172521
-2.1,1.8308429e-05,0.000138128167,0.000324803153,0.000546749077,0.000785852339,0.00102778409
-2.15,1.84351873e-05,0.000138642439,0.000325875613,0.00054863907,0.0007890266,0.00103339567
-2.2,1.85619505e-05,0.000139151585,0.000326929031,0.000550479155,0.000792077607,0.00103863231
-2.25,1.86887423e-05,0.000139655878,0.000327964534,0.000552272924,0.000795017456,0.00104355403
-2.3,1.8815588e-05,0.000140155572,0.000328983155,0.000554023591,0.000797856343,0.00104820834
-2.35,1.89425141e-05,0.000140650907,0.000329985841,0.000555734038,0.000800602987,0.00105263217
-2.4,1.90695496e-05,0.000141142111,0.000330973463,0.000557406867,0.000803264942,0.00105685442
-2.45,1.91967263e-05,0.0001416294,0.000331946827,0.000559044433,0.000805848818,0.00106089809
-2.5,1.93240801e-05,0.000142112982,0.000332906674,0.000560648875,0.000808360442,0.00106478187
-2.55,1.94516514e-05,0.000142593062,0.000333853694,0.000562222146,0.000810804992,0.00106852129
-2.6,1.95794864e-05,0.000143069843,0.000334788529,0.000563766029,0.000813187092,0.00107212943
-2.65,1.97076377e-05,0.000143543529,0.000335711779,0.00056528216,0.000815510895,0.0010756175
-2.7,1.9836166e-05,0.000144014331,0.000336624006,0.000566772044,0.000817780145,0.00107899524
-2.75,1.99651407e-05,0.00014448247,0.000337525742,0.000568237068,0.000819998236,0.00108227116
-2.8,2.00946413e-05,0.000144948183,0.000338417494,0.000569678513,0.000822168249,0.00108545278
-2.85,2.02247586e-05,0.000145411725,0.000339299749,0.000571097566,0.000824292995,0.00108854678
-2.9,2.03555964e-05,0.00014587338,0.000340172981,0.000572495332,0.000826375047,0.00109155913
-2.95,2.04872722e-05,0.000146333463,0.000341037657,0.000573872839,0.000828416762,0.00109449522
-3.0,2.0619919e-05,0.000146792325,0.00034189425,0.000575231048,0.000830420309,0.00109735987
-3.05,2.07536867e-05,0.000147250366,0.000342743238,0.000576570867,0.000832387688,0.0011001575
-3.1,2.08887432e-05,0.000147708037,0.000343585124,0.000577893151,0.000834320746,0.00110289209
-3.15,2.10252761e-05,0.00014816585,0.000344420439,0.000579198718,0.000836221196,0.0011055673
-3.2,2.11634943e-05,0.000148624384,0.000345249758,0.000580488355,0.000838090627,0.00110818646
-3.25,2.13036288e-05,0.000149084295,0.000346073709,0.000581762829,0.00083993052,0.00111075263
-3.3,2.14459347e-05,0.000149546325,0.000346892991,0.000583022901,0.00084174226,0.00111326865
