vds,vb1,vb2,vb3,vb4,vb5,vb6
-0.0,0.0,0.0,0.0,0.0,0.0,0.0
-0.05,3.82440689e-06,3.62318169e-05,6.27356444e-05,8.31667727e-05,9.91525764e-05,0.000111827268
-0.1,5.49839032e-06,6.85350804e-05,0.00012156558,0.000162604973,0.000194791433,0.000220359923
-0.15,6.00142683e-06,9.69966098e-05,0.000176562814,0.000238376135,0.000286968507,0.000325642022
-0.2,6.21164519e-06,0.000121703292,0.0002277987,0.000310540478,0.000375734728,0.000427716844
-0.25,6.3634362e-06,0.000142744655,0.000275343058,0.000379156946,0.000461140041,0.000526626909
-0.3,6.49774451e-06,0.000160218682,0.000319264325,0.000444283259,0.000543233437,0.000622413991
-0.35,6.62427159e-06,0.000174245923,0.000359629771,0.00050597596,0.000622062976,0.000715119143
-0.4,6.7463484e-06,0.000185004658,0.000396505803,0.000564290464,0.000697675814,0.000804782708
-0.45,6.86549304e-06,0.000192809889,0.000429958473,0.000619281126,0.000770118232,0.000891444334
-0.5,6.98255175e-06,0.000198223985,0.00046005432,0.000671001303,0.000839435658,0.000975142999
-0.55,7.09806595e-06,0.000202026667,0.000486861901,0.000719503454,0.0009056727,0.00105591702
-0.6,7.21241545e-06,0.000204922224,0.000510454685,0.000764839251,0.000968873177,0.00113380406
-0.65,7.3258838e-06,0.000207334548,0.000530916754,0.000807059746,0.00102908015,0.00120884118
-0.7,7.43869192e-06,0.000209467973,0.000548354258,0.000846215621,0.00108633596,0.00128106482
-0.75,7.5510173e-06,0.000211419053,0.000562917795,0.000882357555,0.00114068227,0.00135051082
-0.8,7.66300575e-06,0.000213237856,0.00057484061,0.000915536837,0.00119216013,0.00141721445
-0.85,7.77477923e-06,0.000214953674,0.000584481821,0.000945806382,0.00124081006,0.00148121045
-0.9,7.88644114e-06,0.000216585562,0.000592323778,0.000973222495,0.00128667209,0.00154253301
-0.95,7.99808019e-06,0.000218146966,0.000598875403,0.00099784803,0.00132978597,0.00160121581
-1.0,8.10977319e-06,0.000219647943,0.00060454889,0.00101975808,0.0013701913,0.00165729206
-1.05,8.22158723e-06,0.000221096332,0.00060961826,0.00103905012,0.00140792787,0.00171079455
-1.1,8.33358133e-06,0.000222498434,0.000614250484,0.00105586072,0.00144303609,0.00176175565
-1.15,8.44580778e-06,0.000223859423,0.000618547913,0.00107038828,0.00147555771,0.00181020741
-1.2,8.55831311e-06,0.000225183628,0.000622576749,0.00108291051,0.00150553705,0.0018561816
-1.25,8.67113904e-06,0.000226474712,0.000626382678,0.00109377231,0.00153302301,0.00189970986
-1.3,8.78432307e-06,0.000227735817,0.000629999085,0.00110333226,0.00155807246,0.00194082385
-1.35,8.89789912e-06,0.000228969659,0.0006334515,0.00111190029,0.00158075593,0.00197955544
-1.4,9.01189798e-06,0.000230178606,0.000636760125,0.00111970933,0.00160116667,0.00201593711
-1.45,9.12634772e-06,0.000231364733,0.00063994137,0.00112692265,0.00161943307,0.00205000248
-1.5,9.24127399e-06,0.000232529878,0.000643008825,0.00113365364,0.00163573141,0.00208178717
-1.55,9.35670037e-06,0.000233675667,0.000645973925,0.00113998311,0.00165028921,0.00211133017
-1.6,9.4726486e-06,0.000234803556,0.00064884641,0.0011459709,0.00166336828,0.00213867611
-1.65,9.58913877e-06,0.000235914845,0.000651634665,0.00115166295,0.00167523003,0.00216387882
-1.7,9.70618955e-06,0.000237010707,0.000654345968,0.00115709563,0.00168610295,0.00218700675
-1.75,9.82381841e-06,0.0002380922,0.000656986688,0.0011622985,0.00169616893,0.00220815052
-1.8,9.94204172e-06,0.000239160283,0.000659562429,0.00116729602,0.0017055663,0.00222743124
-1.85,1.0060875e-05,0.000240215829,0.000662078158,0.00117210875,0.0017143995,0.00224500562
-1.9,1.01803331e-05,0.000241259633,0.000664538292,0.00117675421,0.00172274858,0.00226106164
-1.95,1.03004303e-05,0.000242292422,0.000666946784,0.00118124748,0.00173067631,0.00227580209
-2.0,1.04211806e-05,0.000243314864,0.000669307185,0.00118560163,0.00173823305,0.00228942248
-2.05,1.05425981e-05,0.000244327574,0.000671622694,0.00118982811,0.00174546005,0.00230209443
-2.1,1.06646971e-05,0.000245331119,0.000673896208,0.001193937,0.00175239165,0.0023139597
-2.15,1.07874922e-05,0.000246326027,0.000676130358,0.00119793721,0.00175905687,0.00232513213
-2.2,1.09109992e-05,0.000247312787,0.000678327538,0.00120183669,0.00176548051,0.00233570283
-2.25,1.10352349e-05,0.00024829186,0.000680489937,0.00120564254,0.00177168398,0.00234574532
-2.3,1.11602181e-05,0.000249263681,0.000682619559,0.00120936113,0.00177768591,0.00235531979
-2.35,1.12859696e-05,0.000250228663,0.000684718247,0.00121299822,0.00178350262,0.00236447621
-2.4,1.14125131e-05,0.000251187207,0.0006867877,0.00121655901,0.00178914851,0.00237325666
-2.45,1.15398756e-05,0.000252139704,0.000688829486,0.00122004823,0.00179463636,0.00238169692
-2.5,1.16680882e-05,0.000253086542,0.000690845063,0.00122347017,0.00179997755,0.00238982782
-2.55,1.17971865e-05,0.000254028116,0.000692835791,0.00122682878,0.00180518227,0.00239767604
-2.6,1.19272121e-05,0.000254964832,0.000694802941,0.00123012764,0.00181025971,0.00240526495
-2.65,1.20582126e-05,0.000255897118,0.000696747718,0.00123337008,0.00181521814,0.00241261507
-2.7,1.2190243e-05,0.000256825432,0.000698671267,0.00123655914,0.00182006505,0.00241974458
-2.75,1.23233665e-05,0.000257750271,0.000700574691,0.00123969762,0.00182480727,0.00242666963
-2.8,1.24576553e-05,0.000258672185,0.000702459066,0.00124278816,0.00182945099,0.00243340469
-2.85,1.25931919e-05,0.000259591784,0.000704325458,0.00124583316,0.00183400191,0.00243996271
-2.9,1.27300702e-05,0.000260509755,0.000706174944,0.00124883491,0.00183846523,0.00244635536
-2.95,1.28683963e-05,0.000261426873,0.000708008628,0.00125179555,0.00184284573,0.00245259323
-3.0,1.30082897e-05,0.000262344012,0.000709827665,0.00125471708,0.00184714783,0.00245868589
-3.05,1.31498848e-05,0.000263262164,0.000711633285,0.00125760146,0.0018513756,0.00246464207
-3.1,1.32933314e-05,0.00026418245,0.000713426823,0.00126045055,0.00185553283,0.00247046974
-3.15,1.34387968e-05,0.000265106136,0.000715209739,0.0012632662,0.00185962302,0.00247617618
-3.2,1.35864659e-05,0.00026603465,0.000716983656,0.00126605023,0.00186364946,0.0024817681
-3.25,1.37365436e-05,0.000266969596,0.00071875039,0.0012688045,0.00186761524,0.00248725165
-3.3,1.38892548e-05,0.000267912768,0.000720511983,0.00127153093,0.00187152327,0.00249263252
