vds,vb1,vb2,vb3,vb4,vb5,vb6
0.0,0.0,0.0,0.0,0.0,0.0,0.0
-0.05,9.95196719e-07,1.95774834e-05,3.26491002e-05,4.22012996e-05,4.94880109e-05,5.52192739e-05
-0.1,1.31989436e-06,3.77193887e-05,6.38819129e-05,8.30491967e-05,9.76954684e-05,0.000109230638
-0.15,1.40419482e-06,5.44616696e-05,9.37284237e-05,0.000122568736,0.000144643484,0.000162052078
-0.2,1.44794035e-06,6.98392005e-05,0.000122217784,0.00016078435,0.000190352707,0.000213701224
-0.25,1.48289039e-06,8.38858751e-05,0.000149378342,0.000197719875,0.000234843339,0.000264195361
-0.3,1.51448433e-06,9.66347386e-05,0.000175237671,0.000233398573,0.000278135145,0.000313551433
-0.35,1.54424489e-06,0.000108118181,0.000199822595,0.000267843144,0.000320247465,0.000361786058
-0.4,1.57279656e-06,0.000118368255,0.000223159223,0.000301075747,0.000361199221,0.000408915527
-0.45,1.60046942e-06,0.000127417236,0.000245272971,0.00033311801,0.000401008936,0.000454955819
-0.5,1.62746838e-06,0.00013529872,0.000266188592,0.000363991054,0.000439694737,0.000499922605
-0.55,1.65393416e-06,0.000142049854,0.000285930203,0.000393715499,0.000477274366,0.000543831255
-0.6,1.67996988e-06,0.000147716076,0.000304521319,0.000422311484,0.000513765196,0.000586696845
-0.65,1.70565447e-06,0.00015236075,0.00032198488,0.000449798679,0.000549184231,0.000628534163
-0.7,1.73105027e-06,0.00015608143,0.000338343289,0.000476196301,0.000583548122,0.000669357717
-0.75,1.75620764e-06,0.000159024368,0.000353618453,0.000501523123,0.000616873175,0.000709181743
-0.8,1.78116799e-06,0.000161371819,0.000367831832,0.000525797489,0.000649175357,0.000748020206
-0.85,1.8059659e-06,0.000163296726,0.000381004512,0.000549037323,0.000680470308,0.000785886812
-0.9,1.83063055e-06,0.000164928104,0.000393157299,0.000571260142,0.000710773346,0.000822795007
-0.95,1.85518685e-06,0.000166350481,0.000404310879,0.000592483063,0.000740099477,0.000858757993
-1.0,1.87965623e-06,0.000167617879,0.000414486089,0.000612722805,0.000768463399,0.000893788722
-1.05,1.90405728e-06,0.000168765858,0.000423704423,0.000631995696,0.000795879512,0.000927899912
-1.1,1.92840624e-06,0.000169818883,0.000431989051,0.000650317667,0.000822361924,0.000961104043
-1.15,1.95271737e-06,0.000170794503,0.000439366907,0.000667704243,0.000847924451,0.000993413371
-1.2,1.97700327e-06,0.000171705753,0.000445872774,0.000684170511,0.000872580624,0.00102483992
-1.25,2.00127513e-06,0.000172562604,0.000451555961,0.000699731085,0.000896343693,0.00105539551
-1.3,2.02554296e-06,0.000173372859,0.000456487311,0.000714400021,0.000919226619,0.00108509173
-1.35,2.0498157e-06,0.000174142746,0.000460759862,0.000728190692,0.000941242077,0.00111393997
-1.4,2.07410141e-06,0.000174877323,0.000464478577,0.000741115583,0.000962402444,0.00114195139
-1.45,2.09840737e-06,0.000175580752,0.000467745053,0.000753185977,0.000982719782,0.00116913697
-1.5,2.12274017e-06,0.000176256501,0.00047064691,0.000764411525,0.00100220582,0.00119550746
-1.55,2.14710581e-06,0.000176907492,0.000473254669,0.000774799755,0.00102087189,0.00122107342
-1.6,2.17150976e-06,0.000177536209,0.000475623287,0.000784355891,0.0010387289,0.00124584519
-1.65,2.19595703e-06,0.000178144783,0.000477795199,0.000793083912,0.0010557872,0.0012698329
-1.7,2.2204522e-06,0.000178735055,0.000479803279,0.000800990528,0.00107205648,0.00129304647
-1.75,2.24499952e-06,0.000179308625,0.000481673236,0.000808093241,0.00108754549,0.00131549556
-1.8,2.26960286e-06,0.000179866898,0.000483425418,0.000814430026,0.00110226173,0.0013371896
-1.85,2.29426583e-06,0.000180411107,0.000485076129,0.000820063655,0.00111621097,0.00135813773
-1.9,2.31899176e-06,0.000180942344,0.0004866386,0.000825075885,0.00112939649,0.00137834877
-1.95,2.34378375e-06,0.000181461582,0.000488123689,0.000829555183,0.00114181815,0.00139783116
-2.0,2.36864467e-06,0.000181969688,0.000489540405,0.000833585599,0.00115347138,0.00141659285
-2.05,2.39357722e-06,0.000182467441,0.000490896297,0.000837240655,0.00116434658,0.00143464123
-2.1,2.4185839e-06,0.000182955541,0.000492197748,0.00084058171,0.00117443015,0.00145198287
-2.15,2.44366705e-06,0.000183434622,0.0004934502,0.000843658788,0.0011837089,0.00146862333
-2.2,2.46882887e-06,0.000183905257,0.000494658329,0.000846512318,0.0011921788,0.00148456667
-2.25,2.49407143e-06,0.000184367969,0.000495826181,0.000849174966,0.00119985552,0.00149981499
-2.3,2.51939667e-06,0.000184823233,0.000496957276,0.000851673246,0.00120678075,0.00151436756
-2.35,2.54480642e-06,0.000185271485,0.000498054701,0.00085402883,0.00121301952,0.00152821984
-2.4,2.5703024e-06,0.000185713123,0.000499121171,0.000856259571,0.00121865039,0.00154136228
-2.45,2.59588625e-06,0.000186148515,0.000500159091,0.000858380304,0.00122375446,0.00155377932
-2.5,2.62155952e-06,0.000186577998,0.000501170598,0.00086040346,0.00122840751,0.00156544938
-2.55,2.64732368e-06,0.000187001883,0.0005021576,0.000862339536,0.00123267617,0.00157634724
-2.6,2.67318014e-06,0.00018742046,0.00050312181,0.000864197465,0.001236617,0.00158645016
-2.65,2.69913023e-06,0.000187833996,0.000504064768,0.000865984906,0.00124027718,0.00159574737
-2.7,2.72517525e-06,0.000188242738,0.000504987864,0.000867708466,0.00124369575,0.00160424953
-2.75,2.75131643e-06,0.000188646918,0.00050589236,0.000869373885,0.00124690499,0.00161199293
-2.8,2.77755498e-06,0.000189046751,0.0005067794,0.000870986174,0.00124993166,0.00161903601
-2.85,2.80389207e-06,0.000189442438,0.00050765003,0.000872549735,0.00125279803,0.0016254505
-2.9,2.83032885e-06,0.000189834167,0.000508505203,0.000874068452,0.00125552279,0.0016313119
-2.95,2.85686647e-06,0.000190222113,0.000509345795,0.00087554577,0.00125812169,0.00163669241
-3.0,2.88350607e-06,0.000190606441,0.000510172609,0.000876984756,0.0012606081,0.00164165712
-3.05,2.91024879e-06,0.000190987307,0.000510986385,0.000878388156,0.00126299344,0.00164626262
-3.1,2.93709583e-06,0.000191364856,0.000511787805,0.000879758431,0.00126528753,0.00165055713
-3.15,2.96404839e-06,0.000191739225,0.000512577501,0.000881097801,0.00126749889,0.00165458133
-3.2,2.99110776e-06,0.000192110545,0.000513356058,0.000882408273,0.00126963491,0.00165836941
-3.25,3.01827528e-06,0.000192478938,0.000514124018,0.000883691666,0.00127170206,0.00166195013
-3.3,3.04555239e-06,0.000192844521,0.000514881887,0.000884949636,0.00127370602,0.00166534771
-3.35,3.07294066e-06,0.000193207405,0.000515630134,0.000886183693,0.00127565183,0.00166858268
-3.4,3.10044178e-06,0.000193567695,0.0005163692,0.000887395216,0.00127754395,0.0016716725
-3.45,3.12805761e-06,0.000193925495,0.000517099493,0.000888585473,0.00127938635,0.00167463211
-3.5,3.15579021e-06,0.000194280901,0.000517821398,0.000889755627,0.00128118259,0.00167747435
-3.55,3.18364185e-06,0.000194634009,0.000518535275,0.000890906751,0.00128293587,0.00168021034
-3.6,3.21161507e-06,0.000194984912,0.000519241463,0.000892039833,0.00128464907,0.00168284973
-3.65,3.23971269e-06,0.000195333701,0.000519940281,0.00089315579,0.00128632478,0.00168540098
-3.7,3.26793788e-06,0.000195680466,0.000520632027,0.000894255469,0.00128796538,0.00168787149
-3.75,3.29629415e-06,0.000196025297,0.000521316987,0.00089533966,0.001289573,0.0016902678
-3.8,3.32478547e-06,0.000196368287,0.00052199543,0.000896409093,0.00129114962,0.00169259572
-3.85,3.35341623e-06,0.000196709528,0.000522667612,0.000897464454,0.00129269702,0.0016948604
-3.9,3.38219135e-06,0.000197049117,0.000523333776,0.000898506378,0.00129421685,0.00169706645
-3.95,3.41111631e-06,0.000197387154,0.000523994157,0.000899535463,0.00129571062,0.00169921801
-4.0,3.4401972e-06,0.000197723744,0.00052464898,0.000900552267,0.00129717971,0.00170131879
-4.05,3.46944079e-06,0.000198058999,0.000525298465,0.000901557313,0.00129862542,0.00170337214
-4.1,3.49885458e-06,0.00019839304,0.000525942823,0.000902551094,0.00130004893,0.00170538112
-4.15,3.52844686e-06,0.000198725995,0.000526582265,0.000903534075,0.00130145134,0.00170734849
-4.2,3.5582268e-06,0.000199058004,0.000527216999,0.000904506693,0.00130283367,0.00170927675
-4.25,3.58820446e-06,0.000199389219,0.000527847233,0.000905469364,0.00130419689,0.00171116822
-4.3,3.61839093e-06,0.000199719808,0.000528473178,0.000906422481,0.00130554186,0.00171302499
-4.35,3.64879834e-06,0.000200049952,0.000529095051,0.000907366421,0.00130686942,0.00171484899
-4.4,3.67943997e-06,0.000200379852,0.000529713076,0.000908301542,0.00130818035,0.00171664201
-4.45,3.71033031e-06,0.000200709727,0.000530327486,0.000909228192,0.00130947536,0.00171840567
-4.5,3.74148514e-06,0.00020103982,0.000530938529,0.000910146705,0.00131075514,0.00172014151
-4.55,3.77292162e-06,0.000201370395,0.000531546468,0.00091105741,0.00131202032,0.0017218509
-4.6,3.80465835e-06,0.000201701746,0.000532151587,0.000911960627,0.00131327151,0.00172353517
-4.65,3.83671545e-06,0.000202034191,0.000532754193,0.000912856676,0.00131450927,0.00172519551
-4.7,3.86911468e-06,0.000202368081,0.000533354619,0.000913745879,0.00131573415,0.00172683304
-4.75,3.90187947e-06,0.000202703801,0.000533953232,0.000914628559,0.00131694666,0.00172844882
-4.8,3.93503505e-06,0.000203041768,0.000534550432,0.000915505051,0.00131814728,0.00173004383
-4.85,3.96860851e-06,0.00020338244,0.00053514666,0.000916375701,0.00131933649,0.00173161898
-4.9,4.00262889e-06,0.000203726314,0.000535742403,0.000917240871,0.00132051474,0.00173317512
-4.95,4.03712729e-06,0.000204073927,0.000536338198,0.000918100947,0.00132168246,0.00173471307
-5.0,4.07213692e-06,0.000204425867,0.000536934633,0.000918956339,0.00132284009,0.00173623359
-5.05,4.10769321e-06,0.000204782763,0.000537532362,0.000919807492,0.00132398806,0.00173773738
-5.1,4.1438339e-06,0.0002051453,0.000538132102,0.000920654889,0.00132512678,0.00173922513
-5.15,4.18059911e-06,0.000205514211,0.000538734641,0.000921499057,0.00132625668,0.00174069748
-5.2,4.21803145e-06,0.000205890287,0.000539340846,0.000922340575,0.0013273782,0.00174215505
-5.25,4.25617611e-06,0.000206274374,0.000539951666,0.000923180081,0.0013284918,0.00174359841
-5.3,4.29508091e-06,0.000206667382,0.00054056814,0.000924018279,0.00132959793,0.00174502814
-5.35,4.33479641e-06,0.000207070278,0.000541191404,0.000924855947,0.00133069711,0.00174644477
-5.4,4.37537604e-06,0.000207484097,0.000541822693,0.000925693946,0.00133178986,0.00174784885
-5.45,4.41687608e-06,0.00020790994,0.000542463353,0.000926533228,0.00133287674,0.00174924089
-5.5,4.45935586e-06,0.000208348978,0.000543114841,0.000927374843,0.00133395839,0.00175062142
-5.55,4.50287777e-06,0.000208802451,0.000543778738,0.000928219954,0.00133503548,0.00175199097
-5.6,4.54750737e-06,0.000209271675,0.000544456751,0.00092906984,0.00133610876,0.00175335007
-5.65,4.59331345e-06,0.000209758039,0.000545150719,0.000929925909,0.00133717904,0.00175469927
-5.7,4.64036815e-06,0.000210263011,0.000545862622,0.000930789709,0.00133824723,0.00175603915
-5.75,4.68874701e-06,0.000210788137,0.000546594586,0.000931662936,0.00133931434,0.00175737031
-5.8,4.73852904e-06,0.000211335045,0.000547348886,0.000932547444,0.00134038149,0.00175869338
-5.85,4.78979684e-06,0.000211905446,0.00054812796,0.00093344526,0.0013414499,0.00176000908
-5.9,4.84263661e-06,0.000212501132,0.000548934404,0.000934358587,0.00134252096,0.00176131815
-5.95,4.89713829e-06,0.000213123985,0.000549770987,0.000935289824,0.00134359616,0.0017626214
-6.0,4.95339558e-06,0.000213775972,0.000550640652,0.000936241568,0.00134467719,0.00176391976
-6.05,5.01150606e-06,0.000214459148,0.000551546522,0.000937216629,0.00134576589,0.00176521421
-6.1,5.07157121e-06,0.00021517566,0.000552491905,0.000938218043,0.00134686431,0.00176650586
-6.15,5.1336965e-06,0.000215927743,0.000553480302,0.000939249075,0.00134797467,0.00176779593
-6.2,5.19799147e-06,0.000216717725,0.000554515407,0.00094031324,0.00134909943,0.00176908578
-6.25,5.26456976e-06,0.000217548028,0.000555601115,0.000941414301,0.00135024127,0.00177037694
-6.3,5.3335492e-06,0.000218421165,0.000556741525,0.000942556291,0.00135140313,0.00177167106
-6.35,5.40505186e-06,0.000219339746,0.000557940945,0.000943743515,0.0013525882,0.00177297001
-6.4,5.47920412e-06,0.000220306474,0.000559203894,0.000944980564,0.00135379995,0.00177427586
-6.45,5.5561367e-06,0.000221324148,0.000560535109,0.00094627232,0.00135504215,0.00177559087
-6.5,5.63598473e-06,0.000222395663,0.000561939546,0.00094762397,0.00135631886,0.00177691756
-6.55,5.7188878e-06,0.00022352401,0.000563422382,0.000949041014,0.00135763448,0.00177825871
-6.6,5.80499005e-06,0.000224712275,0.000564989021,0.00095052927,0.00135899374,0.00177961735
