vds,vb1,vb2,vb3,vb4,vb5,vb6
0.0,0.0,0.0,0.0,0.0,0.0,0.0
-0.05,5.20884415e-06,2.16613631e-05,3.44839147e-05,4.51047773e-05,5.42430533e-05,6.23473258e-05
-0.1,9.33553102e-06,4.21381571e-05,6.78227757e-05,8.91072733e-05,0.000107421263,0.000123661123
-0.15,1.24673861e-05,6.15080013e-05,0.000100093075,0.000132083175,0.000159609711,0.000184016012
-0.2,1.46552108e-05,7.97952428e-05,0.000131318027,0.0001740549,0.00021083022,0.000243433356
-0.25,1.59902091e-05,9.70117934e-05,0.000161508393,0.000215032424,0.000261092175,0.000301922088
-0.3,1.66817621e-05,0.00011316665,0.000190671996,0.000255022788,0.000310402035,0.000359488218
-0.35,1.70300919e-05,0.000128268129,0.000218815925,0.00029403231,0.000358765543,0.000416137047
-0.4,1.72455918e-05,0.000142324417,0.000245947062,0.000332067104,0.000406188242,0.000471873683
-0.45,1.7411944e-05,0.000155343733,0.000272072199,0.000369133199,0.000452675599,0.000526703159
-0.5,1.75565908e-05,0.00016733444,0.000297198069,0.000405236569,0.000498233031,0.000580630465
-0.55,1.76892931e-05,0.000178305172,0.000321331358,0.000440383139,0.000542865911,0.000633660552
-0.6,1.78141574e-05,0.000188265046,0.000344478706,0.000474578787,0.000586579572,0.000685798334
-0.65,1.79332307e-05,0.000197224029,0.000366646715,0.000507829349,0.000629379307,0.000737048692
-0.7,1.8047694e-05,0.000205193596,0.000387841953,0.000540140613,0.000671270369,0.000787416469
-0.75,1.81583133e-05,0.000212187952,0.000408070964,0.000571518328,0.000712257974,0.000836906477
-0.8,1.82656307e-05,0.000218226362,0.000427340272,0.000601968199,0.000752347297,0.000885523489
-0.85,1.83700555e-05,0.000223337566,0.000445656403,0.000631495892,0.000791543477,0.000933272247
-0.9,1.84719109e-05,0.000227567728,0.000463025893,0.000660107034,0.000829851614,0.000980157461
-0.95,1.8571461e-05,0.000230992475,0.000479455322,0.000687807214,0.000867276774,0.0010261838
-1.0,1.86689268e-05,0.000233727878,0.000494951342,0.000714601987,0.000903823985,0.00107135592
-1.05,1.87644963e-05,0.000235925318,0.000509520735,0.000740496875,0.00093949824,0.00111567841
-1.1,1.88583322e-05,0.000237740807,0.000523170485,0.000765497369,0.000974304497,0.00115915587
-1.15,1.89505762e-05,0.000239300058,0.000535907899,0.000789608935,0.00100824768,0.00120179282
-1.2,1.90413533e-05,0.000240686958,0.000547740782,0.000812837016,0.00104133268,0.0012435938
-1.25,1.91307743e-05,0.000241952357,0.000558677726,0.000835187038,0.00107356436,0.00128456328
-1.3,1.92189382e-05,0.000243126715,0.000568728563,0.000856664418,0.00110494754,0.00132470572
-1.35,1.93059338e-05,0.00024422904,0.000577905119,0.000877274572,0.00113548703,0.00136402553
-1.4,1.9391841e-05,0.00024527195,0.000586222437,0.000897022924,0.00116518759,0.00140252712
-1.45,1.94767325e-05,0.000246264368,0.000593700787,0.000915914925,0.00119405396,0.00144021485
-1.5,1.95606739e-05,0.000247212952,0.000600368782,0.000933956072,0.00122209086,0.00147709305
-1.55,1.96437254e-05,0.000248122891,0.000606267777,0.000951151937,0.00124930298,0.00151316604
-1.6,1.97259418e-05,0.000248998366,0.000611456727,0.000967508203,0.00127569499,0.0015484381
-1.65,1.98073735e-05,0.000249842828,0.000616014728,0.000983030721,0.00130127155,0.00158291348
-1.7,1.98880667e-05,0.000250659184,0.000620037028,0.000997725591,0.00132603729,0.00161659641
-1.75,1.99680641e-05,0.000251449918,0.000623623252,0.00101159927,0.00134999683,0.0016494911
-1.8,2.0047405e-05,0.000252217179,0.000626863539,0.00102465875,0.0013731548,0.00168160173
-1.85,2.01261261e-05,0.000252962843,0.000629830361,0.00103691179,0.00139551582,0.00171293245
-1.9,2.02042609e-05,0.000253688562,0.000632577905,0.00104836732,0.0014170845,0.00174348741
-1.95,2.02818412e-05,0.000254395799,0.000635145635,0.00105903602,0.00143786551,0.00177327072
-2.0,2.0358896e-05,0.000255085861,0.000637562488,0.00106893115,0.00145786352,0.00180228647
-2.05,2.04354527e-05,0.000255759916,0.000639850198,0.00107806988,0.00147708325,0.00183053874
-2.1,2.05115367e-05,0.000256419017,0.000642025572,0.00108647504,0.0014955295,0.00185803159
-2.15,2.0587172e-05,0.000257064116,0.000644101978,0.00109417737,0.00151320719,0.00188476908
-2.2,2.06623808e-05,0.000257696076,0.000646090298,0.00110121773,0.00153012135,0.00191075524
-2.25,2.07371841e-05,0.000258315683,0.000647999569,0.00110764815,0.00154627724,0.0019359941
-2.3,2.08116017e-05,0.000258923655,0.000649837415,0.00111353037,0.0015616804,0.00196048969
-2.35,2.0885652e-05,0.000259520647,0.000651610352,0.00111893127,0.00157633676,0.00198424604
-2.4,2.09593524e-05,0.000260107265,0.000653324006,0.0011239167,0.00159025282,0.00200726718
-2.45,2.10327194e-05,0.000260684062,0.000654983278,0.00112854632,0.00160343586,0.00202955716
-2.5,2.11057686e-05,0.000261251551,0.000656592475,0.00113287108,0.00161589429,0.00205112006
-2.55,2.11785146e-05,0.000261810206,0.000658155398,0.00113693308,0.00162763808,0.00207195998
-2.6,2.12509713e-05,0.000262360466,0.000659675428,0.00114076672,0.00163867948,0.00209208108
-2.65,2.13231519e-05,0.000262902738,0.000661155584,0.00114440013,0.00164903384,0.00211148758
-2.7,2.13950689e-05,0.000263437401,0.000662598575,0.00114785652,0.00165872069,0.00213018381
-2.75,2.14667343e-05,0.000263964808,0.000664006842,0.00115115521,0.00166776497,0.00214817419
-2.8,2.15381594e-05,0.000264485288,0.000665382593,0.0011543125,0.00167619795,0.00216546336
-2.85,2.16093551e-05,0.000264999149,0.000666727832,0.00115734225,0.00168405744,0.00218205612
-2.9,2.16803318e-05,0.00026550668,0.000668044383,0.00116025637,0.00169138681,0.00219795762
-2.95,2.17510995e-05,0.000266008151,0.000669333911,0.00116306517,0.00169823291,0.00221317339
-3.0,2.1821668e-05,0.000266503815,0.000670597942,0.00116577761,0.00170464322,0.00222770947
-3.05,2.18920467e-05,0.000266993911,0.000671837877,0.00116840157,0.00171066342,0.00224157265
-3.1,2.19622448e-05,0.000267478663,0.000673055004,0.00117094402,0.0017163356,0.00225477069
-3.15,2.20322714e-05,0.000267958282,0.000674250512,0.0011734111,0.00172169748,0.00226731263
-3.2,2.21021357e-05,0.000268432969,0.0006754255,0.00117580832,0.0017267823,0.00227920927
-3.25,2.21718467e-05,0.000268902911,0.000676580986,0.00117814058,0.00173161905,0.00229047368
-3.3,2.22414136e-05,0.000269368288,0.000677717914,0.00118041231,0.00173623291,0.00230112188
-3.35,2.23108457e-05,0.000269829268,0.000678837163,0.00118262749,0.00174064577,0.00231117351
-3.4,2.23801529e-05,0.000270286012,0.000679939552,0.00118478971,0.00174487664,0.00232065242
-3.45,2.24493453e-05,0.000270738673,0.000681025842,0.00118690227,0.00174894213,0.0023295869
-3.5,2.25184337e-05,0.000271187395,0.000682096748,0.00118896813,0.00175285678,0.00233800929
-3.55,2.25874294e-05,0.000271632317,0.000683152936,0.00119099002,0.00175663336,0.00234595511
-3.6,2.26563448e-05,0.000272073573,0.000684195032,0.00119297043,0.00176028312,0.00235346146
-3.65,2.27251932e-05,0.000272511291,0.000685223623,0.00119491166,0.00176381607,0.00236056555
-3.7,2.2793989e-05,0.000272945593,0.000686239261,0.00119681579,0.00176724106,0.00236730326
-3.75,2.2862748e-05,0.000273376599,0.000687242464,0.00119868478,0.00177056603,0.00237370822
-3.8,2.29314877e-05,0.000273804425,0.000688233722,0.00120052043,0.00177379808,0.00237981127
-3.85,2.30002272e-05,0.000274229187,0.000689213495,0.00120232438,0.00177694359,0.0023856403
-3.9,2.30689876e-05,0.000274650997,0.000690182221,0.00120409819,0.00178000832,0.00239122026
-3.95,2.31377921e-05,0.000275069968,0.00069114031,0.00120584329,0.00178299747,0.00239657339
-4.0,2.32066667e-05,0.000275486213,0.000692088154,0.001207561,0.00178591579,0.00240171944
-4.05,2.32756397e-05,0.000275899849,0.000693026124,0.00120925258,0.00178876757,0.00240667595
-4.1,2.33447426e-05,0.000276310992,0.000693954572,0.00121091919,0.00179155674,0.00241145849
-4.15,2.341401e-05,0.000276719767,0.000694873834,0.00121256191,0.0017942869,0.00241608093
-4.2,2.348348e-05,0.000277126302,0.00069578423,0.00121418176,0.00179696135,0.00242055564
-4.25,2.35531945e-05,0.000277530733,0.000696686069,0.0012157797,0.00179958312,0.00242489366
-4.3,2.36231997e-05,0.000277933205,0.000697579646,0.00121735663,0.001802155,0.00242910491
-4.35,2.36935458e-05,0.000278333873,0.000698465247,0.00121891338,0.00180467958,0.00243319829
-4.4,2.37642879e-05,0.000278732908,0.000699343149,0.00122045076,0.00180715924,0.00243718184
-4.45,2.38354863e-05,0.000279130491,0.000700213622,0.00122196951,0.00180959619,0.00244106282
-4.5,2.39072062e-05,0.000279526825,0.000701076934,0.00122347035,0.00181199249,0.00244484781
-4.55,2.39795187e-05,0.000279922127,0.000701933349,0.00122495394,0.00181435006,0.00244854279
-4.6,2.4052501e-05,0.00028031664,0.00070278313,0.00122642092,0.00181667067,0.00245215323
-4.65,2.41262364e-05,0.00028071063,0.000703626546,0.00122787188,0.00181895598,0.00245568408
-4.7,2.42008147e-05,0.000281104388,0.000704463868,0.00122930741,0.00182120755,0.00245913993
-4.75,2.4276333e-05,0.000281498237,0.000705295377,0.00123072805,0.00182342684,0.00246252496
-4.8,2.43528955e-05,0.000281892532,0.000706121367,0.00123213432,0.00182561521,0.00246584302
-4.85,2.44306139e-05,0.000282287661,0.000706942146,0.00123352671,0.00182777394,0.00246909765
-4.9,2.4509608e-05,0.000282684054,0.000707758041,0.00123490571,0.00182990423,0.00247229214
-4.95,2.45900057e-05,0.000283082181,0.000708569404,0.00123627178,0.00183200722,0.00247542953
-5.0,2.46719437e-05,0.000283482556,0.000709376612,0.00123762538,0.00183408397,0.00247851263
-5.05,2.47555672e-05,0.000283885741,0.000710180078,0.00123896693,0.0018361355,0.00248154405
-5.1,2.48410309e-05,0.000284292352,0.00071098025,0.00124029689,0.00183816275,0.00248452623
-5.15,2.49284988e-05,0.000284703056,0.000711777622,0.00124161567,0.00184016662,0.00248746143
-5.2,2.50181448e-05,0.00028511858,0.000712572735,0.00124292372,0.00184214797,0.00249035176
-5.25,2.51101526e-05,0.000285539712,0.000713366184,0.00124422146,0.00184410762,0.00249319921
-5.3,2.52047166e-05,0.000285967306,0.000714158629,0.00124550935,0.00184604632,0.00249600563
-5.35,2.53020415e-05,0.000286402282,0.000714950793,0.00124678784,0.00184796483,0.00249877275
-5.4,2.54023429e-05,0.000286845633,0.000715743478,0.00124805743,0.00184986384,0.0025015022
-5.45,2.55058475e-05,0.000287298426,0.000716537566,0.00124931863,0.00185174404,0.00250419551
-5.5,2.56127935e-05,0.000287761808,0.000717334028,0.00125057197,0.00185360607,0.00250685413
-5.55,2.57234305e-05,0.000288237005,0.000718133932,0.00125181805,0.00185545057,0.0025094794
-5.6,2.58380198e-05,0.000288725331,0.000718938451,0.0012530575,0.00185727817,0.00251207263
-5.65,2.59568349e-05,0.000289228184,0.000719748871,0.00125429101,0.00185908946,0.002514635
-5.7,2.60801615e-05,0.000289747056,0.000720566597,0.00125551934,0.00186088505,0.00251716768
-5.75,2.62082975e-05,0.000290283532,0.000721393164,0.00125674333,0.00186266554,0.00251967175
-5.8,2.63415534e-05,0.000290839295,0.000722230244,0.00125796388,0.00186443155,0.00252214824
-5.85,2.64802524e-05,0.000291416126,0.000723079654,0.00125918201,0.0018661837,0.00252459813
-5.9,2.66247307e-05,0.00029201591,0.000723943365,0.00126039885,0.00186792262,0.00252702237
-5.95,2.67753373e-05,0.000292640635,0.000724823509,0.00126161563,0.001869649,0.00252942184
-6.0,2.69324345e-05,0.000293292401,0.000725722391,0.00126283371,0.00187136353,0.00253179742
-6.05,2.70963977e-05,0.000293973413,0.000726642493,0.00126405461,0.00187306698,0.00253414994
-6.1,2.72676156e-05,0.000294685992,0.000727586485,0.00126528,0.00187476015,0.0025364802
-6.15,2.74464906e-05,0.000295432571,0.000728557232,0.00126651169,0.00187644392,0.00253878901
-6.2,2.76334383e-05,0.000296215702,0.000729557802,0.00126775172,0.00187811926,0.00254107713
-6.25,2.78288881e-05,0.000297038053,0.000730591475,0.00126900229,0.00187978722,0.00254334534
-6.3,2.80332828e-05,0.000297902413,0.000731661751,0.00127026581,0.00188144894,0.00254559442
-6.35,2.82470792e-05,0.000298811693,0.000732772353,0.00127154494,0.00188310571,0.00254782515
-6.4,2.84707475e-05,0.000299768926,0.000733927242,0.00127284256,0.00188475894,0.00255003834
-6.45,2.87047719e-05,0.000300777271,0.000735130619,0.00127416179,0.00188641019,0.00255223483
-6.5,2.89496501e-05,0.000301840012,0.000736386931,0.00127550604,0.0018880612,0.00255441548
-6.55,2.92058938e-05,0.000302960558,0.00073770088,0.00127687899,0.00188971387,0.00255658124
-6.6,2.94740283e-05,0.000304142449,0.000739077432,0.00127828463,0.00189137033,0.00255873308
