vds,vb1,vb2,vb3,vb4,vb5,vb6
0.0,0.0,0.0,0.0,0.0,0.0,0.0
-0.05,4.67160844e-08,2.01990108e-07,3.36235302e-07,4.55577017e-07,5.64457675e-07,6.6598471e-07
-0.1,7.48813612e-08,3.84208706e-07,6.53288815e-07,8.92566572e-07,1.1108462e-06,1.31434233e-06
-0.15,9.17625264e-08,5.53600428e-07,9.58103339e-07,1.31791077e-06,1.6461072e-06,1.95201415e-06
-0.2,1.00136744e-07,7.11788605e-07,1.25229998e-06,1.73322998e-06,2.1718606e-06,2.58061972e-06
-0.25,1.0323293e-07,8.59157998e-07,1.53626069e-06,2.13890541e-06,2.6884871e-06,3.20053939e-06
-0.3,1.04253959e-07,9.95805715e-07,1.81007893e-06,2.53502971e-06,3.19607888e-06,3.81186499e-06
-0.35,1.04662289e-07,1.12176301e-06,2.07378103e-06,2.92162838e-06,3.69466093e-06,4.41462114e-06
-0.4,1.0487738e-07,1.23704755e-06,2.32737776e-06,3.29871124e-06,4.1842426e-06,5.00881682e-06
-0.45,1.05018394e-07,1.3416766e-06,2.57087632e-06,3.66628453e-06,4.66482958e-06,5.59445738e-06
-0.5,1.05125315e-07,1.43567182e-06,2.80428321e-06,4.02435362e-06,5.13642673e-06,6.17154729e-06
-0.55,1.0521405e-07,1.51906362e-06,3.02760487e-06,4.37292372e-06,5.59903872e-06,6.74009086e-06
-0.6,1.05291887e-07,1.59189794e-06,3.24084787e-06,4.71200001e-06,6.05267016e-06,7.30009231e-06
-0.65,1.05362562e-07,1.65424924e-06,3.44401905e-06,5.04158767e-06,6.49732567e-06,7.8515559e-06
-0.7,1.05428173e-07,1.70624591e-06,3.63712555e-06,5.36169195e-06,6.93300988e-06,8.39448586e-06
-0.75,1.05489994e-07,1.74812122e-06,3.82017496e-06,5.6723181e-06,7.35972739e-06,8.9288864e-06
-0.8,1.05548843e-07,1.78031131e-06,3.99317543e-06,5.97347142e-06,7.77748285e-06,9.45476178e-06
-0.85,1.05605282e-07,1.80361834e-06,4.15613588e-06,6.26515727e-06,8.18628089e-06,9.97211623e-06
-0.9,1.05659706e-07,1.81938592e-06,4.3090663e-06,6.54738107e-06,8.58612618e-06,1.0480954e-05
-0.95,1.05712411e-07,1.82947096e-06,4.45197815e-06,6.82014833e-06,8.97702337e-06,1.09812793e-05
-1.0,1.05763623e-07,1.83582783e-06,4.58488498e-06,7.08346462e-06,9.35897714e-06,1.14730964e-05
-1.05,1.05813518e-07,1.83999936e-06,4.70780335e-06,7.33733567e-06,9.73199219e-06,1.19564095e-05
-1.1,1.0586224e-07,1.84295508e-06,4.82075424e-06,7.58176731e-06,1.00960732e-05,1.24312229e-05
-1.15,1.05909904e-07,1.84522965e-06,4.92376529e-06,7.81676556e-06,1.0451225e-05,1.28975409e-05
-1.2,1.05956609e-07,1.84710543e-06,5.01687435e-06,8.04233664e-06,1.07974523e-05,1.33553677e-05
-1.25,1.06002438e-07,1.84873334e-06,5.10013526e-06,8.25848704e-06,1.11347599e-05,1.38047076e-05
-1.3,1.06047462e-07,1.85019726e-06,5.17362759e-06,8.4652236e-06,1.14631526e-05,1.42455648e-05
-1.35,1.06091743e-07,1.85154613e-06,5.23747279e-06,8.66255357e-06,1.17826353e-05,1.46779436e-05
-1.4,1.06135334e-07,1.85281004e-06,5.29186131e-06,8.85048472e-06,1.2093213e-05,1.51018484e-05
-1.45,1.06178284e-07,1.85400839e-06,5.33709628e-06,9.02902557e-06,1.23948905e-05,1.55172835e-05
-1.5,1.06220635e-07,1.85515427e-06,5.37365833e-06,9.1981855e-06,1.26876731e-05,1.59242531e-05
-1.55,1.06262426e-07,1.85625692e-06,5.40228376e-06,9.35797516e-06,1.29715657e-05,1.63227616e-05
-1.6,1.06303689e-07,1.85732305e-06,5.42401845e-06,9.50840677e-06,1.32465736e-05,1.67128133e-05
-1.65,1.06344457e-07,1.85835774e-06,5.44017701e-06,9.64949476e-06,1.35127022e-05,1.70944126e-05
-1.7,1.06384758e-07,1.85936492e-06,5.4521672e-06,9.7812566e-06,1.3769957e-05,1.7467564e-05
-1.75,1.06424616e-07,1.86034773e-06,5.46125619e-06,9.90371394e-06,1.40183435e-05,1.78322718e-05
-1.8,1.06464056e-07,1.8613087e-06,5.46841974e-06,1.00168944e-05,1.42578676e-05,1.81885404e-05
-1.85,1.06503099e-07,1.86224993e-06,5.4743271e-06,1.0120834e-05,1.44885355e-05,1.85363744e-05
-1.9,1.06541765e-07,1.86317319e-06,5.47940694e-06,1.02155816e-05,1.47103534e-05,1.88757782e-05
-1.95,1.06580072e-07,1.86407999e-06,5.4839263e-06,1.0301204e-05,1.49233281e-05,1.92067564e-05
-2.0,1.06618037e-07,1.86497163e-06,5.48805171e-06,1.0377796e-05,1.51274668e-05,1.95293136e-05
-2.05,1.06655677e-07,1.86584923e-06,5.49188893e-06,1.04454938e-05,1.53227773e-05,1.98434546e-05
-2.1,1.06693005e-07,1.86671378e-06,5.49550704e-06,1.05044961e-05,1.55092681e-05,2.01491839e-05
-2.15,1.06730035e-07,1.86756618e-06,5.49895266e-06,1.05550942e-05,1.56869484e-05,2.04465064e-05
-2.2,1.0676678e-07,1.8684072e-06,5.50225827e-06,1.05977111e-05,1.58558288e-05,2.07354271e-05
-2.25,1.06803252e-07,1.86923755e-06,5.50544728e-06,1.06329434e-05,1.60159213e-05,2.10159508e-05
-2.3,1.06839463e-07,1.87005786e-06,5.50853708e-06,1.06615884e-05,1.616724e-05,2.12880828e-05
-2.35,1.06875422e-07,1.8708687e-06,5.51154095e-06,1.06846272e-05,1.63098012e-05,2.15518283e-05
-2.4,1.06911139e-07,1.87167062e-06,5.51446928e-06,1.07031446e-05,1.6443625e-05,2.18071928e-05
-2.45,1.06946625e-07,1.87246407e-06,5.51733041e-06,1.07182029e-05,1.65687361e-05,2.20541818e-05
-2.5,1.06981887e-07,1.87324951e-06,5.52013114e-06,1.07307246e-05,1.66851653e-05,2.22928013e-05
-2.55,1.07016935e-07,1.87402733e-06,5.52287713e-06,1.07414328e-05,1.67929526e-05,2.25230574e-05
-2.6,1.07051776e-07,1.87479791e-06,5.52557315e-06,1.07508533e-05,1.68921498e-05,2.27449567e-05
-2.65,1.07086418e-07,1.87556159e-06,5.52822328e-06,1.07593504e-05,1.69828264e-05,2.29585062e-05
-2.7,1.07120869e-07,1.87631869e-06,5.53083105e-06,1.07671717e-05,1.70650762e-05,2.31637133e-05
-2.75,1.07155135e-07,1.87706951e-06,5.53339956e-06,1.07744846e-05,1.71390281e-05,2.33605862e-05
-2.8,1.07189225e-07,1.87781434e-06,5.53593151e-06,1.07814038e-05,1.72048606e-05,2.35491338e-05
-2.85,1.07223146e-07,1.87855341e-06,5.53842932e-06,1.07880094e-05,1.72628213e-05,2.3729366e-05
-2.9,1.07256904e-07,1.87928698e-06,5.54089515e-06,1.07943583e-05,1.73132516e-05,2.39012941e-05
-2.95,1.07290509e-07,1.88001528e-06,5.54333092e-06,1.08004924e-05,1.73566125e-05,2.40649307e-05
-3.0,1.07323967e-07,1.88073851e-06,5.54573841e-06,1.08064429e-05,1.73935043e-05,2.42202908e-05
-3.05,1.07357288e-07,1.88145688e-06,5.54811919e-06,1.08122341e-05,1.74246672e-05,2.43673916e-05
-3.1,1.07390481e-07,1.88217057e-06,5.55047472e-06,1.0817885e-05,1.74509483e-05,2.45062541e-05
-3.15,1.07423557e-07,1.88287976e-06,5.55280632e-06,1.08234107e-05,1.74732358e-05,2.46369035e-05
-3.2,1.07456528e-07,1.88358463e-06,5.55511522e-06,1.08288238e-05,1.74923768e-05,2.4759371e-05
-3.25,1.07489407e-07,1.88428533e-06,5.55740254e-06,1.08341346e-05,1.75091098e-05,2.48736957e-05
-3.3,1.07522209e-07,1.88498201e-06,5.55966931e-06,1.08393521e-05,1.75240304e-05,2.49799275e-05
-3.35,1.07554953e-07,1.88567484e-06,5.5619165e-06,1.08444836e-05,1.75375921e-05,2.50781305e-05
-3.4,1.07587658e-07,1.88636394e-06,5.56414499e-06,1.08495358e-05,1.75501267e-05,2.51683887e-05
-3.45,1.07620347e-07,1.88704946e-06,5.56635563e-06,1.08545143e-05,1.75618727e-05,2.5250813e-05
-3.5,1.07653048e-07,1.88773155e-06,5.56854918e-06,1.08594241e-05,1.75730003e-05,2.5325551e-05
-3.55,1.07685792e-07,1.88841034e-06,5.57072636e-06,1.08642697e-05,1.75836318e-05,2.53927995e-05
-3.6,1.07718613e-07,1.88908599e-06,5.57288787e-06,1.08690551e-05,1.75938561e-05,2.54528205e-05
-3.65,1.07751552e-07,1.88975863e-06,5.57503432e-06,1.08737839e-05,1.76037392e-05,2.55059586e-05
-3.7,1.07784657e-07,1.89042843e-06,5.57716632e-06,1.08784594e-05,1.76133308e-05,2.55526564e-05
-3.75,1.07817979e-07,1.89109556e-06,5.57928444e-06,1.08830844e-05,1.76226694e-05,2.55934637e-05
-3.8,1.07851578e-07,1.89176021e-06,5.58138919e-06,1.08876618e-05,1.76317852e-05,2.56290299e-05
-3.85,1.07885524e-07,1.8924226e-06,5.58348109e-06,1.0892194e-05,1.76407025e-05,2.56600762e-05
-3.9,1.07919891e-07,1.89308294e-06,5.58556061e-06,1.08966832e-05,1.76494413e-05,2.56873474e-05
-3.95,1.07954767e-07,1.89374153e-06,5.58762821e-06,1.09011316e-05,1.76580179e-05,2.57115565e-05
-4.0,1.07990247e-07,1.89439865e-06,5.58968432e-06,1.0905541e-05,1.76664465e-05,2.57333376e-05
-4.05,1.08026439e-07,1.89505466e-06,5.59172936e-06,1.09099134e-05,1.76747387e-05,2.57532198e-05
-4.1,1.08063463e-07,1.89570996e-06,5.59376373e-06,1.09142503e-05,1.76829051e-05,2.57716225e-05
-4.15,1.08101451e-07,1.89636503e-06,5.59578785e-06,1.09185533e-05,1.76909545e-05,2.57888666e-05
-4.2,1.08140549e-07,1.8970204e-06,5.59780211e-06,1.09228239e-05,1.7698895e-05,2.58051923e-05
-4.25,1.08180919e-07,1.89767668e-06,5.5998069e-06,1.09270634e-05,1.77067334e-05,2.58207782e-05
-4.3,1.08222736e-07,1.89833461e-06,5.60180264e-06,1.09312731e-05,1.77144763e-05,2.58357568e-05
-4.35,1.08266196e-07,1.89899498e-06,5.60378976e-06,1.09354542e-05,1.77221292e-05,2.58502276e-05
-4.4,1.08311508e-07,1.89965875e-06,5.6057687e-06,1.09396078e-05,1.77296973e-05,2.58642661e-05
-4.45,1.08358903e-07,1.90032697e-06,5.60773996e-06,1.0943735e-05,1.77371852e-05,2.58779307e-05
-4.5,1.08408631e-07,1.90100085e-06,5.60970407e-06,1.09478368e-05,1.77445972e-05,2.5891267e-05
-4.55,1.08460961e-07,1.90168178e-06,5.61166163e-06,1.09519141e-05,1.77519372e-05,2.59043118e-05
-4.6,1.08516184e-07,1.90237128e-06,5.61361331e-06,1.09559678e-05,1.77592088e-05,2.59170949e-05
-4.65,1.08574615e-07,1.90307111e-06,5.61555987e-06,1.09599988e-05,1.77664153e-05,2.59296409e-05
-4.7,1.08636591e-07,1.90378321e-06,5.61750218e-06,1.09640078e-05,1.77735598e-05,2.59419705e-05
-4.75,1.08702474e-07,1.90450975e-06,5.61944126e-06,1.09679958e-05,1.77806451e-05,2.59541014e-05
-4.8,1.08772651e-07,1.90525316e-06,5.62137826e-06,1.09719633e-05,1.77876739e-05,2.59660487e-05
-4.85,1.08847535e-07,1.9060161e-06,5.62331452e-06,1.09759113e-05,1.77946487e-05,2.59778257e-05
-4.9,1.08927565e-07,1.90680155e-06,5.62525159e-06,1.09798404e-05,1.78015717e-05,2.59894439e-05
-4.95,1.09013209e-07,1.90761275e-06,5.62719125e-06,1.09837514e-05,1.7808445e-05,2.60009137e-05
-5.0,1.09104964e-07,1.9084533e-06,5.62913556e-06,1.09876451e-05,1.78152708e-05,2.60122443e-05
-5.05,1.09203354e-07,1.90932711e-06,5.63108688e-06,1.09915221e-05,1.78220508e-05,2.6023444e-05
-5.1,1.09308936e-07,1.91023846e-06,5.63304791e-06,1.09953835e-05,1.7828787e-05,2.60345202e-05
-5.15,1.09422296e-07,1.91119201e-06,5.63502173e-06,1.099923e-05,1.78354809e-05,2.60454797e-05
-5.2,1.09544051e-07,1.9121928e-06,5.63701185e-06,1.10030626e-05,1.78421341e-05,2.60563288e-05
-5.25,1.0967485e-07,1.91324632e-06,5.63902224e-06,1.10068825e-05,1.78487482e-05,2.60670731e-05
-5.3,1.09815377e-07,1.91435847e-06,5.64105738e-06,1.10106908e-05,1.78553246e-05,2.60777177e-05
-5.35,1.09966345e-07,1.91553561e-06,5.64312232e-06,1.1014489e-05,1.78618646e-05,2.60882677e-05
-5.4,1.10128504e-07,1.9167846e-06,5.64522272e-06,1.10182786e-05,1.78683695e-05,2.60987273e-05
-5.45,1.10302636e-07,1.91811276e-06,5.6473649e-06,1.10220615e-05,1.78748406e-05,2.61091008e-05
-5.5,1.10489559e-07,1.91952793e-06,5.64955588e-06,1.10258398e-05,1.7881279e-05,2.61193919e-05
-5.55,1.10690124e-07,1.92103851e-06,5.65180349e-06,1.10296159e-05,1.7887686e-05,2.61296043e-05
-5.6,1.1090522e-07,1.92265341e-06,5.65411633e-06,1.10333927e-05,1.78940627e-05,2.61397413e-05
-5.65,1.11135767e-07,1.92438211e-06,5.65650392e-06,1.10371735e-05,1.79004102e-05,2.6149806e-05
-5.7,1.11382724e-07,1.9262347e-06,5.65897672e-06,1.10409619e-05,1.79067297e-05,2.61598014e-05
-5.75,1.11647086e-07,1.92822183e-06,5.66154617e-06,1.10447625e-05,1.79130225e-05,2.61697302e-05
-5.8,1.11929881e-07,1.93035478e-06,5.66422477e-06,1.10485801e-05,1.79192897e-05,2.6179595e-05
-5.85,1.12232176e-07,1.93264545e-06,5.66702613e-06,1.10524204e-05,1.79255328e-05,2.61893983e-05
-5.9,1.12555072e-07,1.93510637e-06,5.66996505e-06,1.10562899e-05,1.79317531e-05,2.61991423e-05
-5.95,1.12899708e-07,1.93775074e-06,5.67305755e-06,1.1060196e-05,1.79379523e-05,2.62088293e-05
-6.0,1.13267259e-07,1.9405924e-06,5.67632094e-06,1.10641471e-05,1.79441322e-05,2.62184612e-05
-6.05,1.13658933e-07,1.94364588e-06,5.67977387e-06,1.10681524e-05,1.79502948e-05,2.62280401e-05
-6.1,1.14075977e-07,1.94692638e-06,5.68343641e-06,1.10722226e-05,1.79564425e-05,2.62375679e-05
-6.15,1.14519673e-07,1.95044981e-06,5.68733008e-06,1.10763695e-05,1.79625779e-05,2.62470462e-05
-6.2,1.14991339e-07,1.95423276e-06,5.69147791e-06,1.10806061e-05,1.79687041e-05,2.62564769e-05
-6.25,1.15492327e-07,1.95829254e-06,5.6959045e-06,1.10849472e-05,1.79748247e-05,2.62658616e-05
-6.3,1.16024025e-07,1.96264717e-06,5.70063608e-06,1.10894089e-05,1.79809438e-05,2.6275202e-05
-6.35,1.16587856e-07,1.9673154e-06,5.70570054e-06,1.1094009e-05,1.79870663e-05,2.62844996e-05
-6.4,1.17185277e-07,1.97231669e-06,5.71112748e-06,1.10987673e-05,1.79931977e-05,2.62937562e-05
-6.45,1.17817779e-07,1.97767124e-06,5.71694828e-06,1.11037052e-05,1.79993444e-05,2.63029732e-05
-6.5,1.18486888e-07,1.98339998e-06,5.72319612e-06,1.11088465e-05,1.80055136e-05,2.63121525e-05
-6.55,1.19194163e-07,1.98952458e-06,5.72990604e-06,1.11142167e-05,1.8011714e-05,2.63212958e-05
-6.6,1.19941194e-07,1.99606742e-06,5.73711497e-06,1.11198439e-05,1.8017955e-05,2.6330405e-05
