vds,vb1,vb2,vb3,vb4,vb5,vb6
0.0,0.0,0.0,0.0,0.0,0.0,0.0
-0.05,1.47489635e-07,5.52171416e-07,8.94986665e-07,1.19313186e-06,1.45933724e-06,1.7024728e-06
-0.1,2.24735139e-07,1.03102093e-06,1.71854298e-06,2.31668847e-06,2.85071309e-06,3.33836575e-06
-0.15,2.6742097e-07,1.4712464e-06,2.50536274e-06,3.40536237e-06,4.20881933e-06,4.94237005e-06
-0.2,2.87183987e-07,1.88093825e-06,3.26353122e-06,4.46723756e-06,5.54173914e-06,6.52256832e-06
-0.25,2.94030626e-07,2.26199271e-06,3.99493789e-06,5.5042021e-06,6.85135981e-06,8.08084725e-06
-0.3,2.9621717e-07,2.61486575e-06,4.70002965e-06,6.51670137e-06,8.13812589e-06,9.61765079e-06
-0.35,2.9707375e-07,2.93968109e-06,5.37891758e-06,7.50484483e-06,9.40214598e-06,1.1133087e-05
-0.4,2.97510328e-07,3.23649e-06,6.03163477e-06,8.46866375e-06,1.06434505e-05,1.26271856e-05
-0.45,2.9778554e-07,3.50533461e-06,6.65819633e-06,9.40817121e-06,1.18620516e-05,1.40999582e-05
-0.5,2.97987029e-07,3.74626771e-06,7.25861349e-06,1.03233761e-05,1.30579573e-05,1.55514122e-05
-0.55,2.98149916e-07,3.95936646e-06,7.83289685e-06,1.12142864e-05,1.42311746e-05,1.69815539e-05
-0.6,2.98290316e-07,4.14475261e-06,8.38105735e-06,1.20809099e-05,1.53817102e-05,1.83903894e-05
-0.65,2.98416462e-07,4.30263021e-06,8.9031065e-06,1.29232544e-05,1.65095708e-05,1.97779249e-05
-0.7,2.98532935e-07,4.43336055e-06,9.39905672e-06,1.37413277e-05,1.76147633e-05,2.11441664e-05
-0.75,2.98642469e-07,4.53761193e-06,9.86892152e-06,1.4535138e-05,1.86972943e-05,2.248912e-05
-0.8,2.98746793e-07,4.61664562e-06,1.0312716e-05,1.53046931e-05,1.97571707e-05,2.38127918e-05
-0.85,2.98847055e-07,4.67277475e-06,1.07304573e-05,1.60500015e-05,2.07943993e-05,2.5115188e-05
-0.9,2.9894405e-07,4.70979886e-06,1.11221653e-05,1.67710715e-05,2.1808987e-05,2.63963145e-05
-0.95,2.99038349e-07,4.7327773e-06,1.14878641e-05,1.74679117e-05,2.28009405e-05,2.76561775e-05
-1.0,2.99130376e-07,4.74678719e-06,1.1827583e-05,1.8140531e-05,2.37702668e-05,2.88947833e-05
-1.05,2.99220457e-07,4.7556588e-06,1.21413598e-05,1.87889384e-05,2.4716973e-05,3.01121378e-05
-1.1,2.9930884e-07,4.76172094e-06,1.24292438e-05,1.94131436e-05,2.5641066e-05,3.13082473e-05
-1.15,2.99395728e-07,4.76623394e-06,1.26913025e-05,2.00131565e-05,2.65425529e-05,3.24831179e-05
-1.2,2.99481281e-07,4.76985731e-06,1.29276307e-05,2.05889875e-05,2.74214409e-05,3.36367559e-05
-1.25,2.99565635e-07,4.77294159e-06,1.31383667e-05,2.11406479e-05,2.82777372e-05,3.47691674e-05
-1.3,2.99648903e-07,4.77568039e-06,1.33237182e-05,2.16681496e-05,2.91114491e-05,3.58803587e-05
-1.35,2.9973118e-07,4.77818574e-06,1.34840064e-05,2.21715057e-05,2.9922584e-05,3.6970336e-05
-1.4,2.99812549e-07,4.78052555e-06,1.36197398e-05,2.26507308e-05,3.07111497e-05,3.80391057e-05
-1.45,2.99893079e-07,4.78274288e-06,1.37317327e-05,2.3105841e-05,3.14771536e-05,3.9086674e-05
-1.5,2.99972835e-07,4.78486617e-06,1.3821279e-05,2.3536855e-05,3.22206038e-05,4.01130474e-05
-1.55,3.00051869e-07,4.78691495e-06,1.38903592e-05,2.39437944e-05,3.29415083e-05,4.11182321e-05
-1.6,3.0013023e-07,4.78890304e-06,1.39417728e-05,2.4326685e-05,3.36398755e-05,4.21022346e-05
-1.65,3.00207963e-07,4.79084058e-06,1.39790082e-05,2.46855579e-05,3.43157138e-05,4.30650615e-05
-1.7,3.00285105e-07,4.79273518e-06,1.40057587e-05,2.5020452e-05,3.49690324e-05,4.40067192e-05
-1.75,3.00361692e-07,4.7945927e-06,1.40253084e-05,2.53314167e-05,3.55998404e-05,4.49272143e-05
-1.8,3.00437755e-07,4.79641775e-06,1.4040157e-05,2.56185163e-05,3.62081477e-05,4.58265536e-05
-1.85,3.00513323e-07,4.79821406e-06,1.40520009e-05,2.58818364e-05,3.67939648e-05,4.67047438e-05
-1.9,3.00588424e-07,4.79998464e-06,1.40619166e-05,2.61214937e-05,3.73573028e-05,4.75617917e-05
-1.95,3.0066308e-07,4.80173202e-06,1.40705677e-05,2.63376508e-05,3.78981736e-05,4.83977043e-05
-2.0,3.00737314e-07,4.8034583e-06,1.40783628e-05,2.65305389e-05,3.84165903e-05,4.92124886e-05
-2.05,3.00811147e-07,4.80516529e-06,1.40855577e-05,2.67004925e-05,3.89125674e-05,5.00061518e-05
-2.1,3.00884597e-07,4.80685454e-06,1.40923164e-05,2.68480015e-05,3.93861209e-05,5.07787014e-05
-2.15,3.00957683e-07,4.80852738e-06,1.4098747e-05,2.69737864e-05,3.98372692e-05,5.15301448e-05
-2.2,3.0103042e-07,4.81018502e-06,1.41049229e-05,2.7078898e-05,4.02660331e-05,5.22604899e-05
-2.25,3.01102824e-07,4.81182847e-06,1.41108953e-05,2.71648281e-05,4.06724372e-05,5.29697445e-05
-2.3,3.01174909e-07,4.81345867e-06,1.41167013e-05,2.7233589e-05,4.10565104e-05,5.36579171e-05
-2.35,3.01246688e-07,4.81507646e-06,1.41223681e-05,2.72876888e-05,4.14182879e-05,5.43250161e-05
-2.4,3.01318175e-07,4.81668257e-06,1.41279164e-05,2.73299426e-05,4.17578126e-05,5.49710507e-05
-2.45,3.0138938e-07,4.81827767e-06,1.4133362e-05,2.73631504e-05,4.20751382e-05,5.55960304e-05
-2.5,3.01460316e-07,4.81986239e-06,1.41387176e-05,2.73897774e-05,4.23703331e-05,5.61999651e-05
-2.55,3.01530992e-07,4.82143727e-06,1.41439933e-05,2.74117742e-05,4.26434855e-05,5.67828656e-05
-2.6,3.01601421e-07,4.82300284e-06,1.41491975e-05,2.74305632e-05,4.28947116e-05,5.73447433e-05
-2.65,3.01671611e-07,4.82455955e-06,1.4154337e-05,2.74471279e-05,4.31241667e-05,5.78856108e-05
-2.7,3.01741572e-07,4.82610784e-06,1.41594176e-05,2.74621294e-05,4.33320614e-05,5.84054817e-05
-2.75,3.01811316e-07,4.82764811e-06,1.41644442e-05,2.74760088e-05,4.35186849e-05,5.8904371e-05
-2.8,3.01880852e-07,4.82918074e-06,1.41694212e-05,2.74890614e-05,4.36844386e-05,5.93822955e-05
-2.85,3.01950193e-07,4.83070605e-06,1.41743522e-05,2.75014882e-05,4.38298806e-05,5.98392743e-05
-2.9,3.02019348e-07,4.83222438e-06,1.41792405e-05,2.75134281e-05,4.3955785e-05,6.02753291e-05
-2.95,3.02088332e-07,4.83373601e-06,1.41840889e-05,2.75249793e-05,4.40632093e-05,6.0690485e-05
-3.0,3.02157159e-07,4.83524124e-06,1.41889e-05,2.75362132e-05,4.41535558e-05,6.10847716e-05
-3.05,3.02225845e-07,4.83674032e-06,1.41936761e-05,2.75471822e-05,4.4228598e-05,6.14582239e-05
-3.1,3.0229441e-07,4.83823351e-06,1.41984193e-05,2.75579262e-05,4.42904356e-05,6.18108842e-05
-3.15,3.02362875e-07,4.83972103e-06,1.42031314e-05,2.75684758e-05,4.43413564e-05,6.21428041e-05
-3.2,3.02431265e-07,4.84120311e-06,1.42078141e-05,2.75788553e-05,4.43836313e-05,6.24540475e-05
-3.25,3.02499611e-07,4.84267996e-06,1.42124689e-05,2.7589084e-05,4.44193125e-05,6.27446947e-05
-3.3,3.02567948e-07,4.84415179e-06,1.42170974e-05,2.75991778e-05,4.44501028e-05,6.30148477e-05
-3.35,3.02636317e-07,4.84561881e-06,1.42217007e-05,2.76091497e-05,4.44773212e-05,6.3264638e-05
-3.4,3.02704767e-07,4.84708121e-06,1.42262801e-05,2.76190108e-05,4.45019393e-05,6.3494237e-05
-3.45,3.02773354e-07,4.84853921e-06,1.42308367e-05,2.76287703e-05,4.45246515e-05,6.37038706e-05
-3.5,3.02842145e-07,4.84999301e-06,1.42353715e-05,2.76384362e-05,4.45459463e-05,6.38938389e-05
-3.55,3.02911215e-07,4.85144284e-06,1.42398855e-05,2.76480156e-05,4.45661664e-05,6.40645428e-05
-3.6,3.02980655e-07,4.85288894e-06,1.42443796e-05,2.76575146e-05,4.45855537e-05,6.42165184e-05
-3.65,3.03050566e-07,4.85433157e-06,1.42488546e-05,2.76669384e-05,4.46042808e-05,6.43504784e-05
-3.7,3.03121066e-07,4.85577104e-06,1.42533114e-05,2.76762919e-05,4.4622473e-05,6.44673574e-05
-3.75,3.0319229e-07,4.85720768e-06,1.42577505e-05,2.76855794e-05,4.46402228e-05,6.45683509e-05
-3.8,3.0326439e-07,4.85864188e-06,1.42621728e-05,2.76948047e-05,4.46575996e-05,6.46549307e-05
-3.85,3.0333754e-07,4.8600741e-06,1.42665789e-05,2.77039713e-05,4.46746568e-05,6.47288183e-05
-3.9,3.03411935e-07,4.86150488e-06,1.42709694e-05,2.77130824e-05,4.46914358e-05,6.47919009e-05
-3.95,3.03487797e-07,4.86293483e-06,1.42753449e-05,2.77221409e-05,4.47079697e-05,6.48461018e-05
-4.0,3.03565372e-07,4.86436469e-06,1.4279706e-05,2.77311494e-05,4.47242852e-05,6.48932356e-05
-4.05,3.03644935e-07,4.86579534e-06,1.42840533e-05,2.77401103e-05,4.47404042e-05,6.49348936e-05
-4.1,3.03726792e-07,4.86722779e-06,1.42883874e-05,2.7749026e-05,4.47563448e-05,6.49723843e-05
-4.15,3.03811284e-07,4.86866322e-06,1.42927087e-05,2.77578985e-05,4.47721225e-05,6.50067308e-05
-4.2,3.03898784e-07,4.87010303e-06,1.4297018e-05,2.77667296e-05,4.47877504e-05,6.50387035e-05
-4.25,3.03989705e-07,4.87154883e-06,1.43013158e-05,2.77755213e-05,4.48032398e-05,6.50688699e-05
-4.3,3.040845e-07,4.87300249e-06,1.43056028e-05,2.77842752e-05,4.48186007e-05,6.50976431e-05
-4.35,3.04183664e-07,4.87446617e-06,1.43098798e-05,2.77929929e-05,4.48338416e-05,6.51253233e-05
-4.4,3.04287736e-07,4.87594234e-06,1.43141476e-05,2.78016757e-05,4.48489703e-05,6.51521293e-05
-4.45,3.04397305e-07,4.87743385e-06,1.4318407e-05,2.78103252e-05,4.48639936e-05,6.51782227e-05
-4.5,3.04513006e-07,4.8789439e-06,1.43226593e-05,2.78189426e-05,4.48789178e-05,6.52037239e-05
-4.55,3.04635529e-07,4.88047617e-06,1.43269058e-05,2.78275292e-05,4.48937483e-05,6.52287243e-05
-4.6,3.04765618e-07,4.88203477e-06,1.43311478e-05,2.7836086e-05,4.49084903e-05,6.52532942e-05
-4.65,3.04904072e-07,4.88362437e-06,1.43353871e-05,2.78446143e-05,4.49231483e-05,6.52774888e-05
-4.7,3.0505175e-07,4.88525015e-06,1.43396259e-05,2.78531152e-05,4.49377266e-05,6.53013517e-05
-4.75,3.05209572e-07,4.88691793e-06,1.43438665e-05,2.78615896e-05,4.4952229e-05,6.53249186e-05
-4.8,3.05378522e-07,4.88863418e-06,1.43481119e-05,2.78700386e-05,4.49666591e-05,6.53482186e-05
-4.85,3.0555965e-07,4.89040606e-06,1.43523653e-05,2.78784633e-05,4.49810203e-05,6.53712758e-05
-4.9,3.05754072e-07,4.89224147e-06,1.43566308e-05,2.78868647e-05,4.49953155e-05,6.53941109e-05
-4.95,3.05962973e-07,4.89414913e-06,1.43609129e-05,2.78952441e-05,4.50095477e-05,6.54167412e-05
-5.0,3.06187613e-07,4.89613859e-06,1.43652168e-05,2.79036025e-05,4.50237195e-05,6.5439182e-05
-5.05,3.06429321e-07,4.8982203e-06,1.43695488e-05,2.79119413e-05,4.50378333e-05,6.54614464e-05
-5.1,3.06689505e-07,4.90040567e-06,1.43739159e-05,2.7920262e-05,4.50518916e-05,6.54835459e-05
-5.15,3.06969647e-07,4.9027071e-06,1.43783262e-05,2.79285662e-05,4.50658965e-05,6.55054909e-05
-5.2,3.07271307e-07,4.90513804e-06,1.43827889e-05,2.79368558e-05,4.50798501e-05,6.55272907e-05
-5.25,3.07596128e-07,4.90771304e-06,1.43873144e-05,2.7945133e-05,4.50937543e-05,6.55489533e-05
-5.3,3.0794583e-07,4.91044782e-06,1.43919146e-05,2.79534005e-05,4.51076109e-05,6.55704865e-05
-5.35,3.08322218e-07,4.91335926e-06,1.43966028e-05,2.79616614e-05,4.51214218e-05,6.55918968e-05
-5.4,3.08727178e-07,4.91646553e-06,1.4401394e-05,2.79699191e-05,4.51351886e-05,6.56131906e-05
-5.45,3.09162685e-07,4.91978606e-06,1.44063049e-05,2.7978178e-05,4.51489129e-05,6.56343736e-05
-5.5,3.09630794e-07,4.92334165e-06,1.44113541e-05,2.79864431e-05,4.51625964e-05,6.5655451e-05
-5.55,3.1013365e-07,4.92715447e-06,1.44165621e-05,2.79947203e-05,4.51762407e-05,6.56764276e-05
-5.6,3.10673484e-07,4.93124811e-06,1.4421952e-05,2.80030166e-05,4.51898473e-05,6.5697308e-05
-5.65,3.11252613e-07,4.93564767e-06,1.44275487e-05,2.801134e-05,4.5203418e-05,6.57180963e-05
-5.7,3.11873445e-07,4.94037972e-06,1.44333799e-05,2.80196999e-05,4.52169544e-05,6.57387964e-05
-5.75,3.12538474e-07,4.9454724e-06,1.4439476e-05,2.80281073e-05,4.52304585e-05,6.57594119e-05
-5.8,3.13250284e-07,4.95095545e-06,1.44458699e-05,2.80365746e-05,4.52439323e-05,6.57799463e-05
-5.85,3.14011548e-07,4.95686022e-06,1.44525975e-05,2.80451165e-05,4.52573781e-05,6.58004027e-05
-5.9,3.14825026e-07,4.96321972e-06,1.4459698e-05,2.80537494e-05,4.52707985e-05,6.58207841e-05
-5.95,3.1569357e-07,4.97006864e-06,1.44672135e-05,2.80624921e-05,4.52841966e-05,6.58410933e-05
-6.0,3.16620119e-07,4.97744339e-06,1.44751898e-05,2.8071366e-05,4.52975759e-05,6.58613331e-05
-6.05,3.17607701e-07,4.98538214e-06,1.44836759e-05,2.80803952e-05,4.53109407e-05,6.5881506e-05
-6.1,3.18659431e-07,4.99392481e-06,1.44927248e-05,2.80896067e-05,4.53242957e-05,6.59016143e-05
-6.15,3.19778515e-07,5.0031131e-06,1.45023931e-05,2.80990311e-05,4.53376468e-05,6.59216604e-05
-6.2,3.20968242e-07,5.01299055e-06,1.45127414e-05,2.81087022e-05,4.53510009e-05,6.59416467e-05
-6.25,3.22231992e-07,5.0236025e-06,1.45238343e-05,2.81186577e-05,4.5364366e-05,6.59615752e-05
-6.3,3.23573227e-07,5.03499615e-06,1.45357407e-05,2.81289394e-05,4.53777518e-05,6.59814481e-05
-6.35,3.24995497e-07,5.04722053e-06,1.4548534e-05,2.81395935e-05,4.53911694e-05,6.60012678e-05
-6.4,3.26502436e-07,5.06032658e-06,1.45622918e-05,2.81506707e-05,4.54046318e-05,6.60210364e-05
-6.45,3.2809776e-07,5.07436707e-06,1.45770964e-05,2.81622269e-05,4.54181543e-05,6.60407563e-05
-6.5,3.29785268e-07,5.08939668e-06,1.45930347e-05,2.81743229e-05,4.54317545e-05,6.606043e-05
-6.55,3.31568841e-07,5.10547195e-06,1.46101987e-05,2.81870253e-05,4.54454529e-05,6.60800604e-05
-6.6,3.3345244e-07,5.12265132e-06,1.46286849e-05,2.82004064e-05,4.54592727e-05,6.60996506e-05
