vds,vb1,vb2,vb3,vb4,vb5,vb6
0.0,0.0,0.0,0.0,0.0,0.0,0.0
-0.05,2.61661004e-06,1.07624568e-05,1.71348741e-05,2.24244381e-05,2.69810101e-05,3.1023685e-05
-0.1,4.69612958e-06,2.09378609e-05,3.37018687e-05,4.43019779e-05,5.34336276e-05,6.15345789e-05
-0.15,6.28188255e-06,3.05649411e-05,4.97391605e-05,6.56704001e-05,7.93953341e-05,9.15699326e-05
-0.2,7.39831154e-06,3.96557915e-05,6.52582885e-05,8.65408515e-05,0.000104876981,0.00012114037
-0.25,8.0880737e-06,4.82162889e-05,8.02645667e-05,0.000106918259,0.000129883204,0.0001502503
-0.3,8.45010335e-06,5.62508534e-05,9.47618388e-05,0.000126806081,0.000154417174,0.000178902672
-0.35,8.63222897e-06,6.37635659e-05,0.000108753585,0.000146207419,0.000178481704,0.000207100079
-0.4,8.74334732e-06,7.07584406e-05,0.000122243181,0.000165125269,0.000202079512,0.00023484502
-0.45,8.82825097e-06,7.72395092e-05,0.000135233959,0.000183562588,0.000225213275,0.000262139958
-0.5,8.90174122e-06,8.32108722e-05,0.000147729223,0.000201522306,0.000247885646,0.000288987333
-0.55,8.96904348e-06,8.86767619e-05,0.000159732253,0.000219007328,0.000270099259,0.000315389568
-0.6,9.03232859e-06,9.36416454e-05,0.000171246308,0.000236020538,0.000291856725,0.000341349066
-0.65,9.09266427e-06,9.81104006e-05,0.000182274628,0.000252564797,0.000313160638,0.000366868216
-0.7,9.15065927e-06,0.000102088633,0.000192820437,0.000268642947,0.000334013573,0.000391949389
-0.75,9.20670456e-06,0.000105583265,0.000202886947,0.000284257805,0.000354418087,0.000416594938
-0.8,9.26107507e-06,0.000108603648,0.000212477362,0.000299412174,0.000374376715,0.000440807201
-0.85,9.31397741e-06,0.000111163685,0.000221594885,0.000314108831,0.000393891977,0.000464588499
-0.9,9.3655744e-06,0.000113285656,0.000230242727,0.00032835054,0.000412966374,0.000487941137
-0.95,9.41599886e-06,0.000115006095,0.000238424119,0.000342140044,0.000431602389,0.000510867404
-1.0,9.46536188e-06,0.000116381416,0.000246142328,0.000355480068,0.000449802488,0.000533369572
-1.05,9.5137581e-06,0.000117486035,0.000253400685,0.000368373325,0.000467569119,0.0005554499
-1.1,9.56126928e-06,0.000118397749,0.000260202623,0.00038082251,0.000484904714,0.000577110629
-1.15,9.60796688e-06,0.000119180057,0.00026655173,0.000392830307,0.000501811688,0.000598353985
-1.2,9.65391387e-06,0.000119875646,0.000272451839,0.00040439939,0.000518292442,0.000619182181
-1.25,9.69916621e-06,0.000120510413,0.000277907168,0.000415532424,0.000534349359,0.000639597413
-1.3,9.74377385e-06,0.000121099802,0.000282922541,0.00042623207,0.000549984808,0.000659601863
-1.35,9.78778169e-06,0.000121653383,0.000287503752,0.000436500989,0.000565201144,0.000679197698
-1.4,9.83123025e-06,0.000122177465,0.000291658165,0.000446341848,0.000580000706,0.000698387073
-1.45,9.87415624e-06,0.00012267648,0.000295395683,0.000455757325,0.000594385823,0.000717172127
-1.5,9.91659305e-06,0.000123153722,0.000298730275,0.000464750123,0.00060835881,0.000735554985
-1.55,9.95857114e-06,0.000123611751,0.000301682136,0.000473322983,0.000621921969,0.00075353776
-1.6,1.00001184e-05,0.000124052626,0.000304280118,0.000481478701,0.000635077596,0.000771122552
-1.65,1.00412604e-05,0.000124478048,0.000306563121,0.000489220157,0.000647827974,0.000788311448
-1.7,1.00820207e-05,0.000124889448,0.000308578319,0.000496550353,0.000660175382,0.000805106521
-1.75,1.01224211e-05,0.00012528805,0.000310375444,0.00050347247,0.000672122091,0.000821509835
-1.8,1.01624815e-05,0.000125674915,0.000311999777,0.000509989951,0.000683670373,0.000837523439
-1.85,1.02022207e-05,0.000126050968,0.000313487825,0.000516106626,0.000694822497,0.000853149375
-1.9,1.02416558e-05,0.000126417027,0.000314866859,0.000521826897,0.00070558074,0.00086838967
-1.95,1.0280803e-05,0.000126773817,0.000316156658,0.000527156023,0.000715947386,0.000883246345
-2.0,1.03196771e-05,0.000127121983,0.000317371647,0.000532100549,0.000725924737,0.00089772141
-2.05,1.03582922e-05,0.000127462106,0.000318522604,0.000536668937,0.000735515121,0.000911816867
-2.1,1.03966613e-05,0.000127794709,0.000319617834,0.000540872447,0.000744720901,0.00092553471
-2.15,1.04347965e-05,0.000128120265,0.000320663922,0.000544726251,0.000753544495,0.000938876928
-2.2,1.04727094e-05,0.000128439204,0.000321666223,0.000548250547,0.000761988393,0.000951845504
-2.25,1.05104106e-05,0.000128751916,0.000322629183,0.000551471139,0.000770055189,0.000964442419
-2.3,1.05479103e-05,0.00012905876,0.00032355655,0.000554418762,0.000777747621,0.000976669653
-2.35,1.05852179e-05,0.000129360063,0.000324451533,0.000557126835,0.000785068626,0.000988529185
-2.4,1.06223424e-05,0.000129656128,0.000325316902,0.00055962834,0.000792021424,0.001000023
-2.45,1.06592923e-05,0.00012994723,0.000326155076,0.000561953159,0.000798609634,0.00101115309
-2.5,1.06960755e-05,0.000130233627,0.00032696818,0.000564126752,0.000804837435,0.00102192146
-2.55,1.07326996e-05,0.000130515556,0.000327758095,0.000566170078,0.000810709807,0.00103233014
-2.6,1.07691717e-05,0.000130793237,0.000328526493,0.000568100183,0.000816232853,0.00104238117
-2.65,1.08054986e-05,0.000131066873,0.000329274871,0.000569930963,0.000821414244,0.00105207665
-2.7,1.08416867e-05,0.000131336656,0.000330004572,0.000571673849,0.000826263762,0.0010614187
-2.75,1.08777421e-05,0.000131602761,0.00033071681,0.000573338355,0.00083079389,0.00107040953
-2.8,1.09136708e-05,0.000131865355,0.000331412681,0.000574932494,0.000835020287,0.00107905142
-2.85,1.09494782e-05,0.000132124593,0.000332093184,0.000576463082,0.000838961891,0.00108734677
-2.9,1.09851698e-05,0.000132380618,0.000332759227,0.000577935978,0.000842640425,0.00109529816
-2.95,1.10207508e-05,0.000132633568,0.00033341164,0.000579356257,0.000846079291,0.00110290834
-3.0,1.1056226e-05,0.000132883569,0.000334051186,0.000580728345,0.000849302164,0.00111018036
-3.05,1.10916004e-05,0.000133130742,0.000334678564,0.000582056134,0.000852331721,0.00111711766
-3.1,1.11268787e-05,0.0001333752,0.000335294417,0.000583343058,0.000855188791,0.00112372416
-3.15,1.11620655e-05,0.000133617049,0.000335899342,0.000584592168,0.000857891987,0.0011300045
-3.2,1.11971656e-05,0.000133856391,0.000336493888,0.000585806187,0.000860457659,0.0011359642
-3.25,1.12321836e-05,0.00013409332,0.000337078566,0.000586987553,0.000862900057,0.00114160996
-3.3,1.12671241e-05,0.000134327926,0.000337653849,0.00058813846,0.000865231556,0.00114695001
-3.35,1.13019919e-05,0.000134560295,0.000338220177,0.00058926089,0.000867462906,0.00115199437
-3.4,1.1336792e-05,0.000134790507,0.000338777962,0.000590356638,0.000869603466,0.00115675512
-3.45,1.13715296e-05,0.00013501864,0.000339327586,0.000591427335,0.000871661409,0.00116124646
-3.5,1.14062101e-05,0.000135244767,0.000339869409,0.000592474468,0.000873643898,0.0011654845
-3.55,1.14408393e-05,0.000135468959,0.000340403766,0.000593499397,0.000875557236,0.00116948676
-3.6,1.14754233e-05,0.000135691282,0.000340930971,0.000594503366,0.000877406993,0.00117327146
-3.65,1.15099689e-05,0.0001359118,0.000341451321,0.000595487522,0.00087919811,0.00117685681
-3.7,1.15444833e-05,0.000136130577,0.000341965092,0.000596452917,0.000880934985,0.00118026035
-3.75,1.15789744e-05,0.000136347673,0.000342472547,0.000597400525,0.000882621552,0.00118349853
-3.8,1.16134511e-05,0.000136563145,0.000342973932,0.000598331245,0.000884261339,0.00118658643
-3.85,1.16479228e-05,0.000136777053,0.000343469479,0.000599245912,0.000885857521,0.00118953771
-3.9,1.16824002e-05,0.000136989453,0.000343959409,0.000600145298,0.000887412967,0.00119236464
-3.95,1.17168948e-05,0.000137200401,0.00034444393,0.000601030124,0.000888930275,0.00119507814
-4.0,1.17514197e-05,0.000137409955,0.000344923238,0.000601901061,0.000890411806,0.00119768795
-4.05,1.17859889e-05,0.000137618172,0.000345397522,0.000602758734,0.000891859711,0.00120020273
-4.1,1.18206182e-05,0.000137825112,0.000345866958,0.000603603728,0.000893275955,0.00120263017
-4.15,1.18553248e-05,0.000138030837,0.000346331718,0.000604436591,0.000894662339,0.00120497714
-4.2,1.18901278e-05,0.000138235409,0.000346791963,0.000605257836,0.000896020514,0.00120724977
-4.25,1.19250481e-05,0.000138438898,0.000347247847,0.000606067944,0.000897352002,0.00120945357
-4.3,1.19601087e-05,0.000138641376,0.000347699522,0.000606867368,0.000898658205,0.00121159345
-4.35,1.19953347e-05,0.000138842918,0.00034814713,0.000607656534,0.000899940419,0.00121367386
-4.4,1.20307536e-05,0.00013904361,0.000348590812,0.000608435844,0.000901199842,0.00121569879
-4.45,1.20663954e-05,0.000139243542,0.000349030704,0.000609205676,0.000902437589,0.00121767189
-4.5,1.21022928e-05,0.000139442813,0.000349466941,0.000609966389,0.000903654693,0.00121959644
-4.55,1.21384811e-05,0.000139641531,0.000349899656,0.00061071832,0.000904852117,0.00122147542
-4.6,1.2174999e-05,0.000139839816,0.00035032898,0.00061146179,0.000906030759,0.00122331159
-4.65,1.22118879e-05,0.000140037799,0.000350755049,0.000612197105,0.000907191456,0.00122510742
-4.7,1.22491928e-05,0.000140235624,0.000351177999,0.000612924553,0.000908334994,0.00122686522
-4.75,1.22869622e-05,0.000140433449,0.00035159797,0.00061364441,0.000909462106,0.00122858708
-4.8,1.23252479e-05,0.000140631448,0.000352015109,0.00061435694,0.000910573482,0.00123027494
-4.85,1.2364106e-05,0.000140829815,0.000352429568,0.000615062395,0.000911669767,0.00123193059
-4.9,1.24035961e-05,0.00014102876,0.000352841511,0.000615761018,0.00091275157,0.00123355568
-4.95,1.24437822e-05,0.000141228514,0.000353251112,0.000616453043,0.000913819464,0.00123515174
-5.0,1.24847326e-05,0.00014142933,0.000353658558,0.000617138698,0.000914873988,0.00123672018
-5.05,1.25265199e-05,0.000141631486,0.000354064053,0.000617818206,0.000915915654,0.00123826233
-5.1,1.25692214e-05,0.000141835285,0.000354467818,0.000618491784,0.000916944942,0.00123977941
-5.15,1.26129191e-05,0.000142041054,0.000354870097,0.00061915965,0.000917962309,0.00124127257
-5.2,1.26576998e-05,0.000142249153,0.000355271156,0.000619822022,0.000918968187,0.00124274287
-5.25,1.27036556e-05,0.000142459969,0.00035567129,0.000620479119,0.000919962988,0.00124419133
-5.3,1.27508835e-05,0.000142673922,0.000356070821,0.000621131164,0.000920947103,0.00124561886
-5.35,1.27994859e-05,0.000142891466,0.000356470107,0.000621778389,0.000921920905,0.00124702635
-5.4,1.28495708e-05,0.000143113091,0.000356869542,0.000622421036,0.000922884751,0.00124841464
-5.45,1.29012515e-05,0.000143339323,0.000357269558,0.000623059358,0.000923838984,0.00124978448
-5.5,1.29546472e-05,0.000143570726,0.000357670634,0.000623693626,0.000924783936,0.00125113661
-5.55,1.30098827e-05,0.000143807906,0.000358073295,0.000624324131,0.000925719926,0.00125247172
-5.6,1.3067089e-05,0.00014405151,0.000358478117,0.000624951187,0.000926647267,0.00125379047
-5.65,1.31264028e-05,0.000144302228,0.000358885733,0.000625575134,0.000927566266,0.00125509346
-5.7,1.31879671e-05,0.000144560797,0.000359296832,0.000626196346,0.000928477228,0.00125638127
-5.75,1.3251931e-05,0.000144827998,0.000359712171,0.000626815234,0.000929380454,0.00125765446
-5.8,1.33184501e-05,0.000145104662,0.00036013257,0.000627432248,0.000930276252,0.00125891356
-5.85,1.33876862e-05,0.000145391668,0.000360558924,0.000628047888,0.000931164932,0.00126015905
-5.9,1.34598075e-05,0.000145689947,0.000360992203,0.000628662703,0.000932046817,0.00126139142
-5.95,1.35349889e-05,0.000146000482,0.000361433455,0.000629277301,0.00093292224,0.00126261113
-6.0,1.36134117e-05,0.000146324309,0.000361883814,0.000629892353,0.000933791553,0.0012638186
-6.05,1.36952641e-05,0.000146662517,0.000362344503,0.000630508602,0.000934655131,0.00126501427
-6.1,1.37807407e-05,0.000147016254,0.000362816836,0.000631126863,0.000935513376,0.00126619854
-6.15,1.3870043e-05,0.000147386723,0.000363302223,0.000631748038,0.000936366721,0.00126737181
-6.2,1.39633793e-05,0.000147775184,0.000363802176,0.000632373114,0.00093721564,0.00126853447
-6.25,1.40609647e-05,0.000148182957,0.000364318312,0.000633003178,0.000938060649,0.00126968692
-6.3,1.4163021e-05,0.000148611421,0.000364852353,0.000633639416,0.000938902317,0.00127082955
-6.35,1.42697772e-05,0.000149062016,0.000365406137,0.000634283128,0.000939741271,0.00127196275
-6.4,1.43814688e-05,0.000149536243,0.000365981615,0.000634935728,0.000940578204,0.00127308692
-6.45,1.44983384e-05,0.000150035663,0.000366580859,0.000635598757,0.000941413883,0.00127420248
-6.5,1.46206355e-05,0.000150561903,0.000367206062,0.000636273886,0.000942249155,0.00127530987
-6.55,1.47486166e-05,0.00015111665,0.000367859545,0.000636962926,0.000943084959,0.00127640954
-6.6,1.48825448e-05,0.000151701655,0.000368543757,0.000637667834,0.000943922333,0.00127750198
