vds,vb1,vb2,vb3,vb4,vb5,vb6
0.0,0.0,0.0,0.0,0.0,0.0,0.0
-0.05,1.18980386e-06,5.50375675e-06,9.00641993e-06,1.19767527e-05,1.45774181e-05,1.69151328e-05
-0.1,2.07263097e-06,1.06724563e-05,1.76922992e-05,2.36474787e-05,2.88612911e-05,3.35471728e-05
-0.15,2.68895879e-06,1.55418915e-05,2.6093269e-05,3.50477022e-05,4.28870633e-05,4.99315028e-05
-0.2,3.06324899e-06,2.01212493e-05,3.42183484e-05,4.61863355e-05,5.66635677e-05,6.60768944e-05
-0.25,3.24454949e-06,2.44135278e-05,4.20703573e-05,5.70660917e-05,7.01934381e-05,8.19859206e-05
-0.3,3.31738738e-06,2.84202937e-05,4.96506699e-05,6.76882377e-05,8.34778628e-05,9.7659709e-05
-0.35,3.34969532e-06,3.21427967e-05,5.69603215e-05,7.80537016e-05,9.65176912e-05,0.000113099049
-0.4,3.36875211e-06,3.55822397e-05,6.4000267e-05,8.81633298e-05,0.000109313692,0.000128304648
-0.45,3.38279659e-06,3.87398568e-05,7.07714411e-05,9.80179476e-05,0.000121866611,0.000143277194
-0.5,3.39447738e-06,4.16169592e-05,7.72747725e-05,0.000107618373,0.00013417719,0.000158017368
-0.55,3.40480341e-06,4.42149909e-05,8.35111884e-05,0.00011696542,0.000146246164,0.000172525846
-0.6,3.41422969e-06,4.65356228e-05,8.9481616e-05,0.0001260599,0.000158074268,0.000186803303
-0.65,3.42299363e-06,4.85809237e-05,9.51869835e-05,0.000134902621,0.000169662231,0.000200850411
-0.7,3.43123494e-06,5.03536813e-05,0.000100628222,0.000143494389,0.000181010781,0.000214667839
-0.75,3.43904426e-06,5.18580277e-05,0.000105806268,0.000151836008,0.000192120644,0.000228256253
-0.8,3.44648508e-06,5.310066e-05,0.000110722066,0.000159928278,0.000202992542,0.000241616319
-0.85,3.45360456e-06,5.40931349e-05,0.00011537657,0.000167771999,0.000213627195,0.000254748697
-0.9,3.46043937e-06,5.48555933e-05,0.000119770754,0.000175367968,0.000224025321,0.000267654048
-0.95,3.46701897e-06,5.54207145e-05,0.000123905617,0.000182716983,0.000234187636,0.000280333029
-1.0,3.47336772e-06,5.58332221e-05,0.000127782192,0.000189819837,0.000244114851,0.000292786294
-1.05,3.47950611e-06,5.61407828e-05,0.000131401569,0.000196677327,0.000253807677,0.000305014496
-1.1,3.4854517e-06,5.63822248e-05,0.000134764914,0.000203290246,0.000263266822,0.000317018285
-1.15,3.49121969e-06,5.65830361e-05,0.000137873514,0.000209659392,0.000272492994,0.000328798309
-1.2,3.4968234e-06,5.67580196e-05,0.000140728835,0.000215785563,0.000281486896,0.000340355213
-1.25,3.50227461e-06,5.69154835e-05,0.000143332624,0.000221669559,0.00029024923,0.000351689642
-1.3,3.50758378e-06,5.70602075e-05,0.000145687069,0.000227312188,0.000298780697,0.000362802237
-1.35,3.51276028e-06,5.71950939e-05,0.000147795071,0.000232714263,0.000307081997,0.000373693637
-1.4,3.51781254e-06,5.73220206e-05,0.000149660694,0.000237876608,0.000315153828,0.00038436448
-1.45,3.52274818e-06,5.74422801e-05,0.000151289898,0.00024280006,0.000322996887,0.0003948154
-1.5,3.52757413e-06,5.75568115e-05,0.000152691691,0.000247485477,0.00033061187,0.000405047032
-1.55,3.53229669e-06,5.76663286e-05,0.000153879714,0.000251933742,0.000337999473,0.000415060006
-1.6,3.53692162e-06,5.77713941e-05,0.000154873874,0.000256145774,0.000345160392,0.000424854953
-1.65,3.54145421e-06,5.78724646e-05,0.000155700891,0.000260122544,0.000352095325,0.000434432501
-1.7,3.54589931e-06,5.79699194e-05,0.00015639228,0.000263865092,0.00035880497,0.000443793276
-1.75,3.55026142e-06,5.80640788e-05,0.000156979758,0.00026737456,0.000365290028,0.000452937904
-1.8,3.55454467e-06,5.81552179e-05,0.000157490578,0.000270652232,0.000371551202,0.000461867008
-1.85,3.55875289e-06,5.82435754e-05,0.000157945342,0.0002736996,0.000377589201,0.000470581211
-1.9,3.56288965e-06,5.83293603e-05,0.000158358411,0.000276518459,0.000383404741,0.000479081135
-1.95,3.56695826e-06,5.84127576e-05,0.000158739469,0.000279111062,0.000388998546,0.000487367401
-2.0,3.5709618e-06,5.84939318e-05,0.000159095064,0.00028148034,0.000394371349,0.000495440629
-2.05,3.57490315e-06,5.857303e-05,0.000159429735,0.000283630254,0.000399523902,0.000503301439
-2.1,3.57878501e-06,5.86501848e-05,0.000159746747,0.000285566298,0.000404456975,0.000510950452
-2.15,3.5826099e-06,5.87255159e-05,0.000160048531,0.000287296214,0.000409171364,0.000518388289
-2.2,3.58638017e-06,5.87991319e-05,0.000160336968,0.000288830843,0.000413667901,0.000525615571
-2.25,3.59009805e-06,5.88711319e-05,0.000160613551,0.000290184936,0.000417947465,0.000532632923
-2.3,3.59376562e-06,5.89416064e-05,0.000160879499,0.000291377405,0.000422010998,0.000539440969
-2.35,3.59738485e-06,5.90106382e-05,0.000161135828,0.000292430472,0.000425859529,0.00054604034
-2.4,3.6009576e-06,5.90783037e-05,0.000161383396,0.000293367582,0.000429494205,0.000552431669
-2.45,3.60448561e-06,5.91446731e-05,0.000161622942,0.000294210829,0.000432916337,0.000558615594
-2.5,3.60797054e-06,5.92098113e-05,0.000161855105,0.000294979038,0.000436127467,0.000564592765
-2.55,3.61141396e-06,5.92737785e-05,0.000162080446,0.000295687091,0.000439129459,0.000570363835
-2.6,3.61481735e-06,5.93366304e-05,0.000162299462,0.000296346253,0.000441924643,0.000575929475
-2.65,3.61818213e-06,5.93984189e-05,0.000162512593,0.000296964913,0.000444516006,0.000581290369
-2.7,3.62150965e-06,5.94591923e-05,0.000162720232,0.000297549353,0.000446907473,0.000586447223
-2.75,3.62480119e-06,5.95189957e-05,0.000162922736,0.000298104355,0.000449104282,0.000591400767
-2.8,3.62805799e-06,5.95778712e-05,0.000163120422,0.000298633644,0.000451113452,0.000596151767
-2.85,3.63128124e-06,5.96358581e-05,0.000163313583,0.000299140189,0.00045294429,0.000600701033
-2.9,3.63447208e-06,5.96929936e-05,0.000163502482,0.000299626409,0.000454608782,0.000605049433
-2.95,3.63763164e-06,5.97493122e-05,0.00016368736,0.00030009431,0.000456121618,0.000609197911
-3.0,3.640761e-06,5.98048466e-05,0.000163868438,0.000300545584,0.000457499613,0.000613147513
-3.05,3.64386126e-06,5.98596275e-05,0.00016404592,0.00030098168,0.000458760521,0.000616899423
-3.1,3.64693347e-06,5.99136839e-05,0.000164219993,0.000301403849,0.000459921564,0.000620455008
-3.15,3.64997874e-06,5.9967043e-05,0.000164390829,0.000301813183,0.000460998225,0.000623815885
-3.2,3.65299815e-06,6.00197308e-05,0.000164558588,0.000302210644,0.000462003618,0.000626984017
-3.25,3.65599284e-06,6.00717717e-05,0.000164723418,0.000302597086,0.000462948438,0.000629961834
-3.3,3.65896398e-06,6.01231889e-05,0.000164885456,0.000302973269,0.000463841245,0.000632752407
-3.35,3.66191281e-06,6.01740045e-05,0.000165044832,0.000303339875,0.000464688872,0.000635359673
-3.4,3.66484063e-06,6.02242394e-05,0.000165201663,0.000303697517,0.000465496814,0.000637788715
-3.45,3.66774884e-06,6.02739138e-05,0.000165356062,0.000304046752,0.000466269546,0.000640046065
-3.5,3.67063898e-06,6.03230468e-05,0.000165508134,0.000304388083,0.000467010764,0.000642139998
-3.55,3.67351269e-06,6.03716569e-05,0.000165657975,0.000304721971,0.000467723563,0.000644080677
-3.6,3.67637179e-06,6.0419762e-05,0.000165805678,0.000305048836,0.00046841057,0.000645880044
-3.65,3.67921826e-06,6.04673795e-05,0.000165951329,0.000305369063,0.000469074041,0.000647551351
-3.7,3.68205431e-06,6.05145264e-05,0.000166095008,0.000305683006,0.000469715931,0.000649108397
-3.75,3.68488237e-06,6.05612194e-05,0.000166236793,0.000305990991,0.000470337948,0.000650564656
-3.8,3.68770515e-06,6.06074752e-05,0.000166376756,0.00030629332,0.000470941601,0.000651932556
-3.85,3.69052564e-06,6.06533107e-05,0.000166514964,0.000306590271,0.000471528223,0.000653223068
-3.9,3.69334716e-06,6.06987427e-05,0.000166651482,0.000306882103,0.000472099007,0.000654445597
-3.95,3.69617339e-06,6.0743789e-05,0.000166786371,0.000307169056,0.000472655019,0.000655608083
-4.0,3.69900841e-06,6.07884677e-05,0.000166919689,0.000307451355,0.000473197222,0.000656717195
-4.05,3.70185671e-06,6.08327979e-05,0.000167051491,0.000307729208,0.000473726484,0.000657778547
-4.1,3.70472327e-06,6.08768e-05,0.00016718183,0.00030800281,0.000474243594,0.000658796897
-4.15,3.70761355e-06,6.09204959e-05,0.000167310756,0.000308272344,0.00047474927,0.000659776305
-4.2,3.71053357e-06,6.09639093e-05,0.000167438317,0.00030853798,0.000475244166,0.000660720267
-4.25,3.71348993e-06,6.10070659e-05,0.00016756456,0.000308799878,0.000475728885,0.000661631817
-4.3,3.71648982e-06,6.10499943e-05,0.000167689531,0.00030905819,0.000476203976,0.000662513606
-4.35,3.71954114e-06,6.10927255e-05,0.000167813273,0.000309313058,0.000476669948,0.000663367968
-4.4,3.72265245e-06,6.11352944e-05,0.000167935829,0.000309564614,0.00047712727,0.000664196968
-4.45,3.72583307e-06,6.11777391e-05,0.000168057243,0.000309812985,0.000477576373,0.000665002444
-4.5,3.72909309e-06,6.12201025e-05,0.000168177558,0.000310058291,0.000478017661,0.000665786041
-4.55,3.73244344e-06,6.12624319e-05,0.000168296816,0.000310300643,0.000478451505,0.000666549233
-4.6,3.7358959e-06,6.13047801e-05,0.000168415063,0.000310540149,0.000478878252,0.000667293354
-4.65,3.73946316e-06,6.13472054e-05,0.000168532345,0.000310776909,0.000479298226,0.000668019607
-4.7,3.74315885e-06,6.1389773e-05,0.00016864871,0.000311011021,0.000479711727,0.000668729087
-4.75,3.74699757e-06,6.14325545e-05,0.000168764209,0.000311242576,0.000480119038,0.000669422791
-4.8,3.75099496e-06,6.14756296e-05,0.000168878897,0.000311471662,0.000480520422,0.000670101629
-4.85,3.75516771e-06,6.15190859e-05,0.000168992834,0.000311698364,0.000480916128,0.000670766435
-4.9,3.75953359e-06,6.15630199e-05,0.000169106084,0.000311922763,0.000481306386,0.000671417975
-4.95,3.76411153e-06,6.16075376e-05,0.000169218719,0.000312144937,0.000481691416,0.000672056955
-5.0,3.76892158e-06,6.16527553e-05,0.000169330816,0.000312364964,0.000482071423,0.000672684025
-5.05,3.77398503e-06,6.16987999e-05,0.000169442463,0.000312582919,0.0004824466,0.000673299786
-5.1,3.77932437e-06,6.17458099e-05,0.000169553756,0.000312798876,0.000482817132,0.000673904796
-5.15,3.78496335e-06,6.1793936e-05,0.000169664802,0.000313012912,0.00048318319,0.000674499572
-5.2,3.79092702e-06,6.18433418e-05,0.00016977572,0.000313225101,0.000483544939,0.000675084595
-5.25,3.79724173e-06,6.18942044e-05,0.000169886645,0.000313435522,0.000483902532,0.000675660313
-5.3,3.80393518e-06,6.19467152e-05,0.000169997723,0.000313644254,0.000484256119,0.000676227143
-5.35,3.81103643e-06,6.20010803e-05,0.00017010912,0.000313851381,0.000484605838,0.000676785477
-5.4,3.81857593e-06,6.20575216e-05,0.000170221019,0.000314056995,0.000484951824,0.00067733568
-5.45,3.82658552e-06,6.21162771e-05,0.000170333621,0.000314261189,0.000485294204,0.000677878094
-5.5,3.83509848e-06,6.21776017e-05,0.000170447151,0.000314464068,0.000485633103,0.00067841304
-5.55,3.84414952e-06,6.22417679e-05,0.000170561857,0.000314665745,0.000485968637,0.000678940822
-5.6,3.85377483e-06,6.23090661e-05,0.00017067801,0.000314866345,0.000486300923,0.000679461722
-5.65,3.86401205e-06,6.23798056e-05,0.000170795909,0.000315066005,0.000486630072,0.00067997601
-5.7,3.8749003e-06,6.24543149e-05,0.000170915882,0.000315264878,0.000486956196,0.000680483937
-5.75,3.88648021e-06,6.25329425e-05,0.000171038287,0.000315463133,0.000487279404,0.000680985742
-5.8,3.89879389e-06,6.26160571e-05,0.000171163514,0.000315660961,0.000487599807,0.000681481651
-5.85,3.91188497e-06,6.27040485e-05,0.000171291988,0.000315858572,0.000487917517,0.000681971877
-5.9,3.92579858e-06,6.27973278e-05,0.000171424169,0.000316056202,0.000488232648,0.000682456624
-5.95,3.94058137e-06,6.28963279e-05,0.000171560556,0.000316254113,0.000488545319,0.000682936084
-6.0,3.9562815e-06,6.30015042e-05,0.000171701688,0.000316452599,0.000488855657,0.000683410441
-6.05,3.97294865e-06,6.31133347e-05,0.000171848144,0.000316651984,0.000489163796,0.000683879871
-6.1,3.99063399e-06,6.32323204e-05,0.000172000548,0.00031685263,0.000489469878,0.000684344541
-6.15,4.00939023e-06,6.3358986e-05,0.00017215957,0.000317054936,0.000489774061,0.000684804614
-6.2,4.02927155e-06,6.34938796e-05,0.000172325925,0.000317259344,0.000490076516,0.000685260246
-6.25,4.05033363e-06,6.36375739e-05,0.000172500379,0.000317466342,0.000490377431,0.00068571159
-6.3,4.07263365e-06,6.37906653e-05,0.000172683746,0.000317676465,0.000490677016,0.000686158794
-6.35,4.09623025e-06,6.39537753e-05,0.000172876896,0.0003178903,0.000490975503,0.000686602007
-6.4,4.12118353e-06,6.41275499e-05,0.000173080748,0.000318108492,0.000491273151,0.000687041375
-6.45,4.14755505e-06,6.431266e-05,0.000173296281,0.000318331741,0.000491570251,0.000687477046
-6.5,4.17540779e-06,6.45098017e-05,0.000173524528,0.000318560812,0.000491867125,0.000687909172
-6.55,4.20480618e-06,6.47196962e-05,0.00017376658,0.000318796536,0.000492164135,0.000688337909
-6.6,4.23581602e-06,6.49430901e-05,0.000174023588,0.000319039812,0.000492461684,0.00068876342
