vds,vb1,vb2,vb3,vb4,vb5,vb6
0.0,0.0,0.0,0.0,0.0,0.0,0.0
-0.05,7.86964953e-08,3.39726724e-07,5.69689209e-07,7.76679756e-07,9.65758159e-07,1.14058195e-06
-0.1,1.39052872e-07,6.59302395e-07,1.11968364e-06,1.53426412e-06,1.9130094e-06,2.26320564e-06
-0.15,1.83382216e-07,9.60852586e-07,1.6521013e-06,2.27486616e-06,2.84386297e-06,3.36997726e-06
-0.2,2.12769294e-07,1.24490671e-06,2.16746362e-06,2.99900235e-06,3.75883153e-06,4.46140641e-06
-0.25,2.29092861e-07,1.51162296e-06,2.66592022e-06,3.70681732e-06,4.65805593e-06,5.53763089e-06
-0.3,2.36417409e-07,1.76107382e-06,3.14753415e-06,4.39836911e-06,5.54159041e-06,6.59870188e-06
-0.35,2.39562866e-07,1.99331289e-06,3.61234828e-06,5.07369551e-06,6.40946897e-06,7.64465038e-06
-0.4,2.41246486e-07,2.20839097e-06,4.06040081e-06,5.73282958e-06,7.26172087e-06,8.6755026e-06
-0.45,2.42412282e-07,2.4063608e-06,4.49172886e-06,6.37580323e-06,8.09837423e-06,9.69128365e-06
-0.5,2.43358892e-07,2.58727953e-06,4.90636939e-06,7.00264807e-06,8.91945685e-06,1.06920183e-05
-0.55,2.4419218e-07,2.75121187e-06,5.30435941e-06,7.61339559e-06,9.72499642e-06,1.16777313e-05
-0.6,2.44955958e-07,2.89823514e-06,5.68573607e-06,8.20807724e-06,1.05150206e-05,1.26484472e-05
-0.65,2.45671171e-07,3.0284484e-06,6.05053679e-06,8.78672446e-06,1.12895569e-05,1.36041905e-05
-0.7,2.46349172e-07,3.1419894e-06,6.39879931e-06,9.34936863e-06,1.20486329e-05,1.45449859e-05
-0.75,2.46996806e-07,3.2390672e-06,6.73056185e-06,9.89604114e-06,1.27922761e-05,1.54708578e-05
-0.8,2.47618594e-07,3.32002567e-06,7.04586328e-06,1.04267734e-05,1.35205139e-05,1.63818307e-05
-0.85,2.48217747e-07,3.38546416e-06,7.34474339e-06,1.09415968e-05,1.42333737e-05,1.72779288e-05
-0.9,2.48796683e-07,3.43644347e-06,7.6272432e-06,1.14405427e-05,1.49308828e-05,1.81591767e-05
-0.95,2.49357311e-07,3.47474247e-06,7.89340549e-06,1.19236427e-05,1.56130687e-05,1.90255985e-05
-1.0,2.49901191e-07,3.50293938e-06,8.14327551e-06,1.23909283e-05,1.62799586e-05,1.98772186e-05
-1.05,2.50429634e-07,3.52399597e-06,8.37690204e-06,1.28424313e-05,1.69315797e-05,2.07140612e-05
-1.1,2.50943764e-07,3.54050751e-06,8.59433896e-06,1.32781834e-05,1.75679594e-05,2.15361504e-05
-1.15,2.51444558e-07,3.55426573e-06,8.79564775e-06,1.36982168e-05,1.81891249e-05,2.23435105e-05
-1.2,2.5193288e-07,3.56632998e-06,8.98090127e-06,1.41025639e-05,1.87951034e-05,2.31361656e-05
-1.25,2.52409503e-07,3.57728779e-06,9.15018991e-06,1.44912572e-05,1.93859222e-05,2.39141397e-05
-1.3,2.52875117e-07,3.58746614e-06,9.30363157e-06,1.48643301e-05,1.99616085e-05,2.4677457e-05
-1.35,2.53330349e-07,3.59705486e-06,9.4413881e-06,1.52218163e-05,2.05221897e-05,2.54261415e-05
-1.4,2.53775768e-07,3.60617099e-06,9.56369278e-06,1.55637506e-05,2.10676931e-05,2.61602171e-05
-1.45,2.54211896e-07,3.6148915e-06,9.67089527e-06,1.58901688e-05,2.1598146e-05,2.68797079e-05
-1.5,2.5463921e-07,3.62327024e-06,9.76353253e-06,1.62011079e-05,2.21135761e-05,2.75846379e-05
-1.55,2.5505815e-07,3.63134703e-06,9.8424289e-06,1.64966073e-05,2.26140108e-05,2.8275031e-05
-1.6,2.55469122e-07,3.63915267e-06,9.90880643e-06,1.67767086e-05,2.30994779e-05,2.89509113e-05
-1.65,2.55872503e-07,3.64671189e-06,9.96433869e-06,1.70414573e-05,2.35700053e-05,2.96123026e-05
-1.7,2.56268643e-07,3.65404518e-06,1.00110481e-05,1.72909036e-05,2.40256212e-05,3.0259229e-05
-1.75,2.56657867e-07,3.66116989e-06,1.00510211e-05,1.75251049e-05,2.4466354e-05,3.08917144e-05
-1.8,2.57040478e-07,3.66810098e-06,1.00860839e-05,1.77441282e-05,2.48922326e-05,3.15097829e-05
-1.85,2.5741676e-07,3.67485155e-06,1.01176259e-05,1.79480547e-05,2.53032862e-05,3.21134586e-05
-1.9,2.57786977e-07,3.6814332e-06,1.0146607e-05,1.81369866e-05,2.56995447e-05,3.27027654e-05
-1.95,2.58151379e-07,3.6878563e-06,1.01736594e-05,1.83110565e-05,2.60810388e-05,3.32777276e-05
-2.0,2.585102e-07,3.69413018e-06,1.0199197e-05,1.84704432e-05,2.64477998e-05,3.38383694e-05
-2.05,2.58863659e-07,3.70026328e-06,1.02234958e-05,1.86153945e-05,2.67998608e-05,3.43847151e-05
-2.1,2.59211962e-07,3.70626331e-06,1.0246747e-05,1.87462615e-05,2.71372559e-05,3.49167894e-05
-2.15,2.59555306e-07,3.71213731e-06,1.02690888e-05,1.88635462e-05,2.74600216e-05,3.54346166e-05
-2.2,2.59893873e-07,3.71789175e-06,1.02906251e-05,1.89679607e-05,2.77681968e-05,3.59382218e-05
-2.25,2.60227838e-07,3.72353257e-06,1.03114373e-05,1.90604842e-05,2.80618241e-05,3.642763e-05
-2.3,2.60557366e-07,3.72906529e-06,1.03315912e-05,1.9142386e-05,2.83409507e-05,3.69028664e-05
-2.35,2.60882613e-07,3.734495e-06,1.03511415e-05,1.92151734e-05,2.860563e-05,3.73639569e-05
-2.4,2.61203726e-07,3.73982644e-06,1.03701346e-05,1.92804503e-05,2.88559243e-05,3.78109275e-05
-2.45,2.61520846e-07,3.74506403e-06,1.03886106e-05,1.9339733e-05,2.90919074e-05,3.8243805e-05
-2.5,2.61834106e-07,3.75021187e-06,1.04066045e-05,1.93943068e-05,2.93136699e-05,3.86626168e-05
-2.55,2.62143634e-07,3.75527381e-06,1.04241476e-05,1.94451716e-05,2.95213256e-05,3.90673909e-05
-2.6,2.62449549e-07,3.76025345e-06,1.04412675e-05,1.94930648e-05,2.97150212e-05,3.94581567e-05
-2.65,2.62751969e-07,3.76515416e-06,1.04579893e-05,1.95385176e-05,2.98949506e-05,3.98349447e-05
-2.7,2.63051002e-07,3.76997911e-06,1.04743356e-05,1.9581913e-05,3.00613742e-05,4.01977869e-05
-2.75,2.63346755e-07,3.77473128e-06,1.04903272e-05,1.96235329e-05,3.0214646e-05,4.05467175e-05
-2.8,2.63639328e-07,3.77941347e-06,1.05059828e-05,1.96635901e-05,3.03552468e-05,4.08817735e-05
-2.85,2.63928819e-07,3.78402833e-06,1.05213198e-05,1.97022504e-05,3.04838216e-05,4.1202995e-05
-2.9,2.64215321e-07,3.78857837e-06,1.05363541e-05,1.97396468e-05,3.06012092e-05,4.15104266e-05
-2.95,2.64498926e-07,3.79306593e-06,1.05511005e-05,1.97758889e-05,3.07084468e-05,4.18041187e-05
-3.0,2.64779721e-07,3.79749326e-06,1.05655727e-05,1.98110689e-05,3.08067303e-05,4.20841294e-05
-3.05,2.65057792e-07,3.80186246e-06,1.05797833e-05,1.98452659e-05,3.08973264e-05,4.23505269e-05
-3.1,2.65333225e-07,3.80617555e-06,1.05937441e-05,1.98785488e-05,3.09814613e-05,4.26033931e-05
-3.15,2.65606101e-07,3.81043443e-06,1.06074662e-05,1.99109783e-05,3.10602243e-05,4.28428284e-05
-3.2,2.65876506e-07,3.81464092e-06,1.06209598e-05,1.99426084e-05,3.11345188e-05,4.30689585e-05
-3.25,2.66144523e-07,3.81879672e-06,1.06342346e-05,1.99734876e-05,3.12050589e-05,4.3281944e-05
-3.3,2.66410237e-07,3.82290349e-06,1.06472996e-05,2.00036597e-05,3.12723957e-05,4.34819921e-05
-3.35,2.66673734e-07,3.82696279e-06,1.06601632e-05,2.00331643e-05,3.13369527e-05,4.36693743e-05
-3.4,2.66935106e-07,3.83097611e-06,1.06728335e-05,2.00620379e-05,3.13990581e-05,4.38444462e-05
-3.45,2.67194446e-07,3.83494489e-06,1.06853178e-05,2.00903136e-05,3.14589715e-05,4.40076717e-05
-3.5,2.67451854e-07,3.8388705e-06,1.06976233e-05,2.0118022e-05,3.15169025e-05,4.41596455e-05
-3.55,2.67707436e-07,3.84275425e-06,1.07097567e-05,2.01451913e-05,3.15730243e-05,4.43011062e-05
-3.6,2.67961304e-07,3.84659742e-06,1.07217242e-05,2.01718476e-05,3.16274826e-05,4.44329308e-05
-3.65,2.68213583e-07,3.85040123e-06,1.07335319e-05,2.0198015e-05,3.16804024e-05,4.45561002e-05
-3.7,2.68464404e-07,3.8541669e-06,1.07451853e-05,2.02237161e-05,3.17318927e-05,4.46716383e-05
-3.75,2.68713914e-07,3.85789558e-06,1.07566898e-05,2.02489717e-05,3.17820491e-05,4.47805396e-05
-3.8,2.68962271e-07,3.86158842e-06,1.07680505e-05,2.02738015e-05,3.1830957e-05,4.48837073e-05
-3.85,2.69209652e-07,3.86524657e-06,1.07792722e-05,2.02982236e-05,3.18786926e-05,4.4981918e-05
-3.9,2.6945625e-07,3.86887115e-06,1.07903595e-05,2.03222552e-05,3.1925325e-05,4.50758141e-05
-3.95,2.69702276e-07,3.87246331e-06,1.08013169e-05,2.03459123e-05,3.19709168e-05,4.51659165e-05
-4.0,2.69947967e-07,3.87602421e-06,1.08121483e-05,2.03692099e-05,3.20155251e-05,4.52526455e-05
-4.05,2.7019358e-07,3.87955504e-06,1.08228579e-05,2.03921623e-05,3.20592021e-05,4.53363419e-05
-4.1,2.70439402e-07,3.88305705e-06,1.08334494e-05,2.04147828e-05,3.2101996e-05,4.54172863e-05
-4.15,2.70685746e-07,3.88653151e-06,1.08439265e-05,2.04370839e-05,3.21439511e-05,4.54957131e-05
-4.2,2.70932957e-07,3.88997981e-06,1.08542927e-05,2.04590776e-05,3.21851084e-05,4.55718215e-05
-4.25,2.71181414e-07,3.89340341e-06,1.08645514e-05,2.0480775e-05,3.22255058e-05,4.5645783e-05
-4.3,2.71431534e-07,3.89680388e-06,1.08747057e-05,2.05021868e-05,3.22651786e-05,4.57177479e-05
-4.35,2.7168377e-07,3.90018292e-06,1.0884759e-05,2.0523323e-05,3.23041597e-05,4.57878487e-05
-4.4,2.71938617e-07,3.90354239e-06,1.08947142e-05,2.05441932e-05,3.23424798e-05,4.58562037e-05
-4.45,2.72196617e-07,3.90688432e-06,1.09045743e-05,2.05648065e-05,3.23801674e-05,4.5922919e-05
-4.5,2.72458356e-07,3.91021095e-06,1.09143425e-05,2.05851714e-05,3.24172494e-05,4.59880909e-05
-4.55,2.72724471e-07,3.91352474e-06,1.09240216e-05,2.06052962e-05,3.24537508e-05,4.60518067e-05
-4.6,2.72995652e-07,3.91682841e-06,1.09336147e-05,2.06251886e-05,3.24896954e-05,4.61141463e-05
-4.65,2.73272644e-07,3.92012495e-06,1.09431248e-05,2.0644856e-05,3.25251051e-05,4.61751827e-05
-4.7,2.7355625e-07,3.9234177e-06,1.09525549e-05,2.06643056e-05,3.2560001e-05,4.62349833e-05
-4.75,2.73847332e-07,3.92671031e-06,1.09619083e-05,2.06835442e-05,3.25944027e-05,4.62936102e-05
-4.8,2.74146819e-07,3.93000683e-06,1.09711883e-05,2.07025782e-05,3.26283287e-05,4.63511208e-05
-4.85,2.74455702e-07,3.93331173e-06,1.09803985e-05,2.07214139e-05,3.26617966e-05,4.64075685e-05
-4.9,2.74775045e-07,3.93662991e-06,1.09895427e-05,2.07400573e-05,3.2694823e-05,4.64630028e-05
-4.95,2.75105981e-07,3.93996677e-06,1.09986249e-05,2.07585143e-05,3.27274235e-05,4.65174698e-05
-5.0,2.75449716e-07,3.94332825e-06,1.10076496e-05,2.07767904e-05,3.27596131e-05,4.65710124e-05
-5.05,2.75807533e-07,3.94672083e-06,1.10166214e-05,2.07948912e-05,3.27914059e-05,4.66236709e-05
-5.1,2.76180796e-07,3.95015161e-06,1.10255458e-05,2.08128221e-05,3.28228153e-05,4.6675483e-05
-5.15,2.76570946e-07,3.95362831e-06,1.10344283e-05,2.08305884e-05,3.28538541e-05,4.67264838e-05
-5.2,2.76979511e-07,3.95715935e-06,1.10432755e-05,2.08481954e-05,3.28845343e-05,4.67767065e-05
-5.25,2.77408101e-07,3.96075387e-06,1.10520944e-05,2.08656484e-05,3.29148675e-05,4.68261823e-05
-5.3,2.77858415e-07,3.96442176e-06,1.10608928e-05,2.08829529e-05,3.29448648e-05,4.68749404e-05
-5.35,2.78332243e-07,3.96817373e-06,1.10696793e-05,2.09001144e-05,3.29745367e-05,4.69230085e-05
-5.4,2.78831463e-07,3.97202132e-06,1.10784635e-05,2.09171386e-05,3.30038933e-05,4.69704126e-05
-5.45,2.79358047e-07,3.97597695e-06,1.10872559e-05,2.09340315e-05,3.30329442e-05,4.70171773e-05
-5.5,2.79914063e-07,3.98005397e-06,1.10960684e-05,2.09507994e-05,3.30616988e-05,4.7063326e-05
-5.55,2.80501674e-07,3.98426669e-06,1.11049136e-05,2.09674493e-05,3.30901659e-05,4.71088806e-05
-5.6,2.8112314e-07,3.98863042e-06,1.11138059e-05,2.09839882e-05,3.31183543e-05,4.7153862e-05
-5.65,2.8178082e-07,3.99316151e-06,1.11227609e-05,2.10004242e-05,3.31462723e-05,4.71982901e-05
-5.7,2.82477174e-07,3.99787736e-06,1.11317957e-05,2.10167658e-05,3.31739282e-05,4.72421835e-05
-5.75,2.83214761e-07,4.00279653e-06,1.1140929e-05,2.10330227e-05,3.320133e-05,4.72855603e-05
-5.8,2.83996243e-07,4.00793867e-06,1.11501815e-05,2.10492051e-05,3.32284856e-05,4.73284374e-05
-5.85,2.84824386e-07,4.01332464e-06,1.11595753e-05,2.10653248e-05,3.32554031e-05,4.7370831e-05
-5.9,2.85702058e-07,4.01897652e-06,1.11691349e-05,2.10813944e-05,3.32820905e-05,4.74127565e-05
-5.95,2.8663223e-07,4.02491762e-06,1.11788865e-05,2.10974281e-05,3.33085558e-05,4.74542287e-05
-6.0,2.8761798e-07,4.03117252e-06,1.11888589e-05,2.11134418e-05,3.33348075e-05,4.74952617e-05
-6.05,2.88662489e-07,4.0377671e-06,1.11990828e-05,2.11294527e-05,3.33608542e-05,4.75358689e-05
-6.1,2.89769044e-07,4.0447286e-06,1.12095915e-05,2.11454804e-05,3.3386705e-05,4.75760633e-05
-6.15,2.90941036e-07,4.05208558e-06,1.12204208e-05,2.1161546e-05,3.34123696e-05,4.76158573e-05
-6.2,2.92181963e-07,4.05986799e-06,1.12316092e-05,2.11776734e-05,3.34378583e-05,4.7655263e-05
-6.25,2.93495426e-07,4.06810719e-06,1.12431978e-05,2.11938884e-05,3.34631823e-05,4.7694292e-05
-6.3,2.94885132e-07,4.07683595e-06,1.12552307e-05,2.12102199e-05,3.34883538e-05,4.77329556e-05
-6.35,2.96354893e-07,4.0860885e-06,1.12677549e-05,2.12266994e-05,3.35133861e-05,4.77712649e-05
-6.4,2.97908624e-07,4.09590052e-06,1.12808204e-05,2.12433614e-05,3.35382938e-05,4.78092308e-05
-6.45,2.99550343e-07,4.10630915e-06,1.12944805e-05,2.12602436e-05,3.35630931e-05,4.78468641e-05
-6.5,3.01284174e-07,4.11735304e-06,1.13087915e-05,2.12773874e-05,3.35878019e-05,4.78841756e-05
-6.55,3.03114339e-07,4.12907233e-06,1.13238134e-05,2.12948377e-05,3.36124402e-05,4.79211762e-05
-6.6,3.05045165e-07,4.14150867e-06,1.13396095e-05,2.13126433e-05,3.36370299e-05,4.79578771e-05
