vds,vb1,vb2,vb3,vb4,vb5,vb6
0.0,0.0,0.0,0.0,0.0,0.0,0.0
-0.05,5.73785821e-07,2.27677007e-06,3.64026637e-06,4.78599487e-06,5.77675396e-06,6.65329364e-06
-0.1,1.03708871e-06,4.43190475e-06,7.16168855e-06,9.45689404e-06,1.14420712e-05,1.31985106e-05
-0.15,1.3984657e-06,6.47320261e-06,1.05719499e-05,1.4020293e-05,1.70034776e-05,1.96431203e-05
-0.2,1.66230648e-06,8.40313456e-06,1.38734055e-05,1.84784601e-05,2.24631727e-05,2.59892668e-05
-0.25,1.83533265e-06,1.02229273e-05,1.70671654e-05,2.28324193e-05,2.78221126e-05,3.22378511e-05
-0.3,1.93337307e-06,1.19335157e-05,2.01540445e-05,2.70829009e-05,3.30809604e-05,3.83894819e-05
-0.35,1.98452432e-06,1.35357657e-05,2.31347851e-05,3.12305627e-05,3.82403077e-05,4.44446973e-05
-0.4,2.01505236e-06,1.50305293e-05,2.60101076e-05,3.52760421e-05,4.33007262e-05,5.04040158e-05
-0.45,2.03792843e-06,1.64186611e-05,2.87807237e-05,3.92199676e-05,4.82627798e-05,5.62679489e-05
-0.5,2.05769699e-06,1.77010277e-05,3.14473388e-05,4.30629622e-05,5.31270272e-05,6.20370035e-05
-0.55,2.07591649e-06,1.88785204e-05,3.40106532e-05,4.68056436e-05,5.78940231e-05,6.77116828e-05
-0.6,2.09319394e-06,1.99520737e-05,3.64713625e-05,5.04486251e-05,6.25643177e-05,7.32924865e-05
-0.65,2.10980635e-06,2.09226975e-05,3.88301583e-05,5.39925151e-05,6.71384574e-05,7.87799108e-05
-0.7,2.12590062e-06,2.17915347e-05,4.10877286e-05,5.74379176e-05,7.16169846e-05,8.41744484e-05
-0.75,2.14156555e-06,2.25599647e-05,4.3244759e-05,6.07854321e-05,7.60004376e-05,8.94765887e-05
-0.8,2.15686085e-06,2.32297995e-05,4.53019331e-05,6.40356539e-05,8.0289351e-05,9.46868176e-05
-0.85,2.17183007e-06,2.38036528e-05,4.72599342e-05,6.71891742e-05,8.44842555e-05,9.98056178e-05
-0.9,2.18650703e-06,2.42856167e-05,4.91194473e-05,7.02465802e-05,8.85856781e-05,0.000104833469
-0.95,2.20091912e-06,2.46823581e-05,5.08811615e-05,7.32084553e-05,9.25941421e-05,0.000109770846
-1.0,2.21508929e-06,2.50043868e-05,5.25457735e-05,7.60753795e-05,9.65101671e-05,0.000114618223
-1.05,2.22903715e-06,2.52662912e-05,5.41139934e-05,7.88479292e-05,0.000100334269,0.000119376069
-1.1,2.2427798e-06,2.54844421e-05,5.55865519e-05,8.15266781e-05,0.000104066961,0.000124044851
-1.15,2.25633231e-06,2.56731487e-05,5.69642123e-05,8.41121975e-05,0.000107708752,0.000128625031
-1.2,2.26970809e-06,2.58424585e-05,5.82477884e-05,8.66050562e-05,0.000111260148,0.000133117072
-1.25,2.28291917e-06,2.59985166e-05,5.94381726e-05,8.90058218e-05,0.000114721651,0.000137521428
-1.3,2.29597643e-06,2.61449049e-05,6.05363806e-05,9.13150613e-05,0.000118093762,0.000141838556
-1.35,2.30888972e-06,2.6283754e-05,6.15436241e-05,9.35333418e-05,0.000121376977,0.000146068907
-1.4,2.32166802e-06,2.64164064e-05,6.24614293e-05,9.56612322e-05,0.000124571789,0.000150212928
-1.45,2.33431955e-06,2.65437694e-05,6.329183e-05,9.76993046e-05,0.000127678692,0.000154271067
-1.5,2.34685187e-06,2.6666499e-05,6.40376699e-05,9.96481371e-05,0.000130698172,0.000158243765
-1.55,2.35927191e-06,2.67850964e-05,6.47030402e-05,0.000101508317,0.000133630718,0.000162131464
-1.6,2.37158608e-06,2.68999625e-05,6.52937985e-05,0.000103280443,0.000136476813,0.000165934601
-1.65,2.38380032e-06,2.70114281e-05,6.58179281e-05,0.000104965136,0.000139236941,0.000169653612
-1.7,2.39592013e-06,2.71197734e-05,6.62852972e-05,0.000106563045,0.000141911585,0.000173288929
-1.75,2.40795061e-06,2.722524e-05,6.67065413e-05,0.000108074858,0.000144501225,0.000176840982
-1.8,2.41989652e-06,2.7328039e-05,6.70915068e-05,0.000109501325,0.000147006344,0.000180310201
-1.85,2.43176231e-06,2.74283572e-05,6.74481583e-05,0.000110843284,0.000149427423,0.00018369701
-1.9,2.44355211e-06,2.75263609e-05,6.77823655e-05,0.000112101704,0.000151764947,0.000187001835
-1.95,2.4552698e-06,2.76221994e-05,6.80982737e-05,0.000113277747,0.000154019403,0.000190225098
-2.0,2.46691902e-06,2.77160074e-05,6.83988114e-05,0.000114372864,0.000156191284,0.000193367219
-2.05,2.47850317e-06,2.78079072e-05,6.86861036e-05,0.000115388938,0.000158281087,0.000196428619
-2.1,2.49002546e-06,2.78980101e-05,6.89617522e-05,0.000116328473,0.000160289324,0.000199409714
-2.15,2.50148891e-06,2.79864176e-05,6.92270122e-05,0.000117194843,0.000162216516,0.000202310923
-2.2,2.51289635e-06,2.8073223e-05,6.94828998e-05,0.000117992533,0.000164063208,0.000205132662
-2.25,2.52425046e-06,2.81585121e-05,6.97302603e-05,0.000118727254,0.000165829968,0.000207875348
-2.3,2.53555377e-06,2.82423639e-05,6.9969812e-05,0.000119405782,0.000167517405,0.000210539399
-2.35,2.54680867e-06,2.83248514e-05,7.02021746e-05,0.000120035422,0.000169126178,0.000213125233
-2.4,2.55801742e-06,2.84060422e-05,7.04278902e-05,0.000120623276,0.000170657021,0.000215633271
-2.45,2.56918216e-06,2.84859992e-05,7.06474373e-05,0.000121175627,0.000172110769,0.000218063937
-2.5,2.58030491e-06,2.85647808e-05,7.08612414e-05,0.000121697672,0.000173488404,0.000220417658
-2.55,2.59138762e-06,2.86424412e-05,7.10696839e-05,0.000122193553,0.000174791111,0.00022269487
-2.6,2.60243211e-06,2.87190314e-05,7.1273108e-05,0.000122666538,0.000176020365,0.000224896014
-2.65,2.61344012e-06,2.87945987e-05,7.14718245e-05,0.000123119236,0.000177178033,0.000227021545
-2.7,2.62441331e-06,2.88691876e-05,7.16661154e-05,0.000123553765,0.000178266505,0.000229071932
-2.75,2.63535327e-06,2.89428398e-05,7.18562381e-05,0.000123971879,0.00017928882,0.000231047664
-2.8,2.6462615e-06,2.90155943e-05,7.20424277e-05,0.000124375061,0.000180248752,0.000232949256
-2.85,2.65713947e-06,2.90874879e-05,7.22249002e-05,0.00012476458,0.000181150772,0.000234777261
-2.9,2.66798856e-06,2.91585553e-05,7.2403854e-05,0.000125141536,0.000181999862,0.000236532277
-2.95,2.6788101e-06,2.9228829e-05,7.25794722e-05,0.000125506897,0.000182801189,0.00023821497
-3.0,2.6896054e-06,2.92983398e-05,7.27519241e-05,0.000125861517,0.000183559754,0.000239826091
-3.05,2.70037571e-06,2.93671168e-05,7.29213662e-05,0.000126206155,0.000184280132,0.000241366508
-3.1,2.71112225e-06,2.94351876e-05,7.30879439e-05,0.000126541493,0.00018496635,0.000242837247
-3.15,2.72184622e-06,2.9502578e-05,7.32517926e-05,0.000126868141,0.000185621885,0.000244239542
-3.2,2.73254879e-06,2.95693128e-05,7.3413038e-05,0.000127186655,0.000186249724,0.000245574899
-3.25,2.74323115e-06,2.96354154e-05,7.35717978e-05,0.000127497535,0.000186852435,0.000246845162
-3.3,2.75389447e-06,2.9700908e-05,7.37281817e-05,0.000127801237,0.000187432244,0.000248052575
-3.35,2.76453995e-06,2.97658118e-05,7.38822924e-05,0.000128098179,0.000187991091,0.000249199822
-3.4,2.77516879e-06,2.98301468e-05,7.40342263e-05,0.000128388743,0.00018853068,0.000250290005
-3.45,2.78578225e-06,2.98939323e-05,7.41840739e-05,0.000128673278,0.000189052514,0.000251326573
-3.5,2.79638164e-06,2.99571866e-05,7.433192e-05,0.000128952106,0.000189557929,0.000252313176
-3.55,2.80696832e-06,3.00199271e-05,7.44778446e-05,0.000129225526,0.000190048119,0.000253253517
-3.6,2.81754375e-06,3.00821707e-05,7.46219231e-05,0.000129493812,0.000190524152,0.000254151208
-3.65,2.82810949e-06,3.01439335e-05,7.47642265e-05,0.000129757218,0.000190986989,0.000255009671
-3.7,2.8386672e-06,3.0205231e-05,7.4904822e-05,0.000130015981,0.000191437498,0.000255832089
-3.75,2.84921872e-06,3.02660783e-05,7.5043773e-05,0.00013027032,0.000191876466,0.000256621382
-3.8,2.859766e-06,3.032649e-05,7.51811395e-05,0.00013052044,0.000192304607,0.000257380207
-3.85,2.87031123e-06,3.03864804e-05,7.53169784e-05,0.000130766532,0.000192722571,0.000258110969
-3.9,2.88085678e-06,3.04460634e-05,7.54513437e-05,0.000131008775,0.000193130955,0.000258815843
-3.95,2.89140526e-06,3.05052528e-05,7.55842866e-05,0.000131247334,0.000193530302,0.000259496789
-4.0,2.90195955e-06,3.05640624e-05,7.57158559e-05,0.000131482366,0.000193921113,0.000260155573
-4.05,2.91252283e-06,3.06225059e-05,7.58460979e-05,0.000131714019,0.000194303848,0.000260793792
-4.1,2.9230986e-06,3.06805974e-05,7.59750569e-05,0.000131942429,0.000194678932,0.000261412887
-4.15,2.93369072e-06,3.07383511e-05,7.6102775e-05,0.000132167727,0.000195046757,0.000262014161
-4.2,2.94430345e-06,3.07957816e-05,7.62292926e-05,0.000132390034,0.000195407686,0.000262598796
-4.25,2.95494145e-06,3.08529042e-05,7.63546485e-05,0.000132609467,0.000195762057,0.000263167866
-4.3,2.96560988e-06,3.09097349e-05,7.64788798e-05,0.000132826134,0.000196110182,0.000263722347
-4.35,2.97631436e-06,3.09662908e-05,7.66020225e-05,0.000133040137,0.000196452353,0.000264263132
-4.4,2.98706108e-06,3.10225899e-05,7.67241114e-05,0.000133251574,0.000196788842,0.000264791034
-4.45,2.99785677e-06,3.10786515e-05,7.68451801e-05,0.000133460537,0.000197119903,0.0002653068
-4.5,3.00870881e-06,3.11344968e-05,7.69652618e-05,0.000133667113,0.000197445773,0.000265811113
-4.55,3.01962522e-06,3.11901485e-05,7.70843888e-05,0.000133871386,0.000197766674,0.000266304604
-4.6,3.0306147e-06,3.12456313e-05,7.72025935e-05,0.000134073434,0.000198082816,0.000266787853
-4.65,3.04168671e-06,3.13009724e-05,7.73199078e-05,0.000134273332,0.000198394393,0.000267261396
-4.7,3.05285148e-06,3.13562014e-05,7.74363642e-05,0.000134471153,0.000198701591,0.000267725728
-4.75,3.06412005e-06,3.14113508e-05,7.75519954e-05,0.000134666963,0.000199004582,0.000268181309
-4.8,3.07550434e-06,3.14664563e-05,7.7666835e-05,0.000134860829,0.000199303531,0.000268628565
-4.85,3.08701715e-06,3.15215571e-05,7.7780918e-05,0.000135052813,0.00019959859,0.000269067892
-4.9,3.09867226e-06,3.15766959e-05,7.78942808e-05,0.000135242976,0.000199889906,0.00026949966
-4.95,3.11048441e-06,3.16319199e-05,7.80069616e-05,0.000135431376,0.000200177617,0.000269924214
-5.0,3.12246939e-06,3.16872804e-05,7.81190014e-05,0.000135618068,0.000200461853,0.000270341874
-5.05,3.13464403e-06,3.17428339e-05,7.82304438e-05,0.000135803108,0.000200742738,0.000270752943
-5.1,3.14702632e-06,3.17986416e-05,7.8341336e-05,0.000135986549,0.000201020388,0.000271157701
-5.15,3.15963536e-06,3.18547705e-05,7.84517289e-05,0.000136168445,0.000201294916,0.000271556414
-5.2,3.17249146e-06,3.19112935e-05,7.85616783e-05,0.000136348847,0.000201566428,0.00027194933
-5.25,3.18561617e-06,3.19682895e-05,7.86712448e-05,0.000136527809,0.000201835023,0.000272336683
-5.3,3.19903231e-06,3.20258443e-05,7.87804949e-05,0.000136705382,0.0002021008,0.000272718692
-5.35,3.21276398e-06,3.20840507e-05,7.88895016e-05,0.000136881622,0.00020236385,0.000273095566
-5.4,3.22683667e-06,3.21430086e-05,7.89983451e-05,0.000137056582,0.00020262426,0.000273467499
-5.45,3.2412772e-06,3.22028258e-05,7.91071134e-05,0.000137230322,0.000202882117,0.000273834677
-5.5,3.25611385e-06,3.22636184e-05,7.92159031e-05,0.000137402901,0.000203137501,0.000274197275
-5.55,3.27137633e-06,3.23255108e-05,7.93248205e-05,0.000137574384,0.000203390492,0.000274555458
-5.6,3.28709581e-06,3.23886363e-05,7.94339819e-05,0.000137744838,0.000203641166,0.000274909384
-5.65,3.30330501e-06,3.24531375e-05,7.95435148e-05,0.000137914337,0.000203889599,0.0002752592
-5.7,3.32003818e-06,3.25191664e-05,7.96535587e-05,0.000138082961,0.000204135865,0.000275605049
-5.75,3.33733111e-06,3.25868851e-05,7.97642658e-05,0.000138250795,0.000204380036,0.000275947066
-5.8,3.35522123e-06,3.2656466e-05,7.98758021e-05,0.000138417934,0.000204622187,0.000276285378
-5.85,3.37374758e-06,3.27280921e-05,7.99883481e-05,0.00013858448,0.00020486239,0.000276620107
-5.9,3.39295082e-06,3.28019572e-05,8.01020998e-05,0.000138750548,0.000205100721,0.000276951372
-5.95,3.41287334e-06,3.28782666e-05,8.02172698e-05,0.000138916262,0.000205337256,0.000277279284
-6.0,3.43355916e-06,3.29572368e-05,8.03340876e-05,0.000139081759,0.000205572077,0.00027760395
-6.05,3.45505406e-06,3.30390966e-05,8.04528014e-05,0.00013924719,0.000205805266,0.000277925476
-6.1,3.47740552e-06,3.31240865e-05,8.05736783e-05,0.000139412721,0.000206036913,0.000278243961
-6.15,3.50066281e-06,3.32124597e-05,8.06970053e-05,0.000139578533,0.000206267112,0.000278559503
-6.2,3.52487692e-06,3.33044819e-05,8.08230906e-05,0.000139744828,0.000206495966,0.000278872199
-6.25,3.55010066e-06,3.34004318e-05,8.0952264e-05,0.000139911825,0.000206723585,0.000279182142
-6.3,3.57638862e-06,3.35006012e-05,8.10848781e-05,0.000140079764,0.000206950089,0.000279489427
-6.35,3.60379718e-06,3.3605295e-05,8.12213091e-05,0.000140248909,0.000207175609,0.000279794147
-6.4,3.63238456e-06,3.37148321e-05,8.13619574e-05,0.000140419544,0.000207400289,0.000280096398
-6.45,3.6622108e-06,3.38295447e-05,8.15072487e-05,0.000140591983,0.000207624288,0.000280396275
-6.5,3.69333776e-06,3.39497791e-05,8.16576347e-05,0.000140766564,0.000207847781,0.00028069388
-6.55,3.72582918e-06,3.40758955e-05,8.18135938e-05,0.000140943654,0.00020807096,0.000280989315
-6.6,3.75975059e-06,3.42082685e-05,8.19756319e-05,0.00014112365,0.000208294037,0.000281282691
