vds,vb1,vb2,vb3,vb4,vb5,vb6
0.0,0.0,0.0,0.0,0.0,0.0,0.0
-0.05,1.75949273e-07,6.53682278e-07,1.06637473e-06,1.42724815e-06,1.7447496e-06,2.02580521e-06
-0.1,3.20774517e-07,1.27311864e-06,2.09889352e-06,2.82154673e-06,3.45762852e-06,4.02087438e-06
-0.15,4.36875682e-07,1.86055784e-06,3.09978126e-06,4.18510116e-06,5.14082573e-06,5.98738253e-06
-0.2,5.25252355e-07,2.41665166e-06,4.06966553e-06,5.51851969e-06,6.79493316e-06,7.9259078e-06
-0.25,5.87108435e-07,2.94167987e-06,5.00880138e-06,6.82203815e-06,8.42017048e-06,9.83665613e-06
-0.3,6.25207821e-07,3.43583581e-06,5.91735656e-06,8.09580521e-06,1.00166703e-05,1.17197465e-05
-0.35,6.45582808e-07,3.8992933e-06,6.79547798e-06,9.33994871e-06,1.15845444e-05,1.35752773e-05
-0.4,6.56345431e-07,4.33222284e-06,7.64330716e-06,1.05545912e-05,1.31238997e-05,1.54033418e-05
-0.45,6.63193172e-07,4.73479636e-06,8.46098393e-06,1.17398536e-05,1.46348413e-05,1.72040319e-05
-0.5,6.68540847e-07,5.10718982e-06,9.24864728e-06,1.28958558e-05,1.61174735e-05,1.89774388e-05
-0.55,6.73235843e-07,5.44958622e-06,1.00064357e-05,1.40227173e-05,1.75719002e-05,2.07236532e-05
-0.6,6.77588479e-07,5.76218034e-06,1.07344871e-05,1.51205568e-05,1.89982248e-05,2.24427654e-05
-0.65,6.81727254e-07,6.0451866e-06,1.14329394e-05,1.61894925e-05,2.03965501e-05,2.41348653e-05
-0.7,6.85712938e-07,6.29885301e-06,1.21019302e-05,1.72296422e-05,2.17669786e-05,2.58000425e-05
-0.75,6.89578057e-07,6.52348637e-06,1.27415971e-05,1.82411231e-05,2.31096122e-05,2.74383861e-05
-0.8,6.93342065e-07,6.71949931e-06,1.33520781e-05,1.9224052e-05,2.44245524e-05,2.9049985e-05
-0.85,6.97017777e-07,6.88749926e-06,1.39335119e-05,2.01785449e-05,2.57119003e-05,3.06349275e-05
-0.9,7.00614342e-07,7.02845443e-06,1.44860384e-05,2.11047179e-05,2.69717564e-05,3.21933017e-05
-0.95,7.04138728e-07,7.14397877e-06,1.50097991e-05,2.20026865e-05,2.8204221e-05,3.37251953e-05
-1.0,7.07596522e-07,7.23671889e-06,1.55049386e-05,2.28725657e-05,2.94093939e-05,3.52306956e-05
-1.05,7.10992373e-07,7.31059604e-06,1.59716054e-05,2.37144705e-05,3.05873744e-05,3.67098896e-05
-1.1,7.14330264e-07,7.37041255e-06,1.64099542e-05,2.45285157e-05,3.17382616e-05,3.81628639e-05
-1.15,7.17613678e-07,7.4207639e-06,1.68201491e-05,2.53148159e-05,3.2862154e-05,3.95897048e-05
-1.2,7.20845713e-07,7.46510574e-06,1.72023676e-05,2.60734859e-05,3.39591499e-05,4.09904982e-05
-1.25,7.24029156e-07,7.50561292e-06,1.75568083e-05,2.68046405e-05,3.50293474e-05,4.23653298e-05
-1.3,7.27166536e-07,7.54353411e-06,1.7883702e-05,2.75083951e-05,3.60728439e-05,4.37142847e-05
-1.35,7.30260168e-07,7.57957378e-06,1.81833298e-05,2.81848656e-05,3.7089737e-05,4.50374481e-05
-1.4,7.3331218e-07,7.61414204e-06,1.84560534e-05,2.88341692e-05,3.80801236e-05,4.63349045e-05
-1.45,7.36324539e-07,7.6474918e-06,1.87023635e-05,2.94564241e-05,3.90441008e-05,4.76067383e-05
-1.5,7.39299068e-07,7.67978999e-06,1.89229587e-05,3.0051751e-05,3.99817652e-05,4.88530336e-05
-1.55,7.42237465e-07,7.71115441e-06,1.91188658e-05,3.06202733e-05,4.08932136e-05,5.00738742e-05
-1.6,7.45141314e-07,7.74167339e-06,1.92916012e-05,3.11621183e-05,4.17785427e-05,5.12693436e-05
-1.65,7.48012097e-07,7.77141658e-06,1.94433335e-05,3.16774191e-05,4.2637849e-05,5.24395253e-05
-1.7,7.50851201e-07,7.80044113e-06,1.95769303e-05,3.21663168e-05,4.34712295e-05,5.35845022e-05
-1.75,7.53659931e-07,7.82879541e-06,1.96957429e-05,3.26289632e-05,4.42787813e-05,5.47043572e-05
-1.8,7.56439514e-07,7.85652134e-06,1.98031301e-05,3.30655263e-05,4.50606021e-05,5.57991731e-05
-1.85,7.59191105e-07,7.8836559e-06,1.99019704e-05,3.34761968e-05,4.58167901e-05,5.68690323e-05
-1.9,7.61915794e-07,7.9102321e-06,1.99944286e-05,3.38611986e-05,4.65474445e-05,5.79140174e-05
-1.95,7.64614611e-07,7.9362798e-06,2.00819991e-05,3.42208048e-05,4.72526658e-05,5.89342105e-05
-2.0,7.67288531e-07,7.96182612e-06,2.0165675e-05,3.45553613e-05,4.7932556e-05,5.99296942e-05
-2.05,7.69938476e-07,7.98689594e-06,2.0246118e-05,3.48653227e-05,4.85872195e-05,6.09005505e-05
-2.1,7.72565321e-07,8.01151215e-06,2.03237819e-05,3.51513052e-05,4.92167638e-05,6.1846862e-05
-2.15,7.75169896e-07,8.03569589e-06,2.03989913e-05,3.54141592e-05,4.98213001e-05,6.27687112e-05
-2.2,7.77752989e-07,8.05946681e-06,2.04719902e-05,3.56550592e-05,5.04009452e-05,6.36661809e-05
-2.25,7.8031535e-07,8.08284314e-06,2.05429698e-05,3.58755905e-05,5.0955823e-05,6.45393541e-05
-2.3,7.82857692e-07,8.10584192e-06,2.06120861e-05,3.60777843e-05,5.14860672e-05,6.53883145e-05
-2.35,7.85380695e-07,8.12847908e-06,2.067947e-05,3.62640396e-05,5.19918247e-05,6.62131463e-05
-2.4,7.87885006e-07,8.15076952e-06,2.07452344e-05,3.64369075e-05,5.24732609e-05,6.70139347e-05
-2.45,7.90371243e-07,8.17272724e-06,2.08094784e-05,3.65988053e-05,5.29305667e-05,6.7790766e-05
-2.5,7.92839996e-07,8.19436539e-06,2.08722899e-05,3.67517911e-05,5.33639686e-05,6.85437277e-05
-2.55,7.9529183e-07,8.21569635e-06,2.09337483e-05,3.68974765e-05,5.37737438e-05,6.92729095e-05
-2.6,7.97727282e-07,8.23673181e-06,2.09939253e-05,3.70370607e-05,5.4160241e-05,6.99784033e-05
-2.65,8.0014687e-07,8.25748278e-06,2.10528867e-05,3.71714195e-05,5.45239096e-05,7.06603043e-05
-2.7,8.02551088e-07,8.27795967e-06,2.11106925e-05,3.73011974e-05,5.48653398e-05,7.13187114e-05
-2.75,8.0494041e-07,8.29817236e-06,2.11673984e-05,3.74268806e-05,5.51853122e-05,7.1953729e-05
-2.8,8.07315291e-07,8.31813016e-06,2.12230558e-05,3.75488481e-05,5.54848529e-05,7.25654681e-05
-2.85,8.09676169e-07,8.33784195e-06,2.12777124e-05,3.76674053e-05,5.57652773e-05,7.31540488e-05
-2.9,8.12023467e-07,8.35731612e-06,2.13314127e-05,3.77828059e-05,5.6028197e-05,7.37196029e-05
-2.95,8.14357591e-07,8.37656065e-06,2.1384198e-05,3.7895266e-05,5.62754616e-05,7.4262278e-05
-3.0,8.16678934e-07,8.39558315e-06,2.14361071e-05,3.80049736e-05,5.65090263e-05,7.47822429e-05
-3.05,8.18987878e-07,8.41439083e-06,2.14871764e-05,3.81120948e-05,5.67307828e-05,7.52796949e-05
-3.1,8.21284795e-07,8.43299059e-06,2.15374399e-05,3.82167783e-05,5.69424154e-05,7.57548702e-05
-3.15,8.23570047e-07,8.451389e-06,2.15869295e-05,3.83191581e-05,5.71453265e-05,7.62080577e-05
-3.2,8.25843989e-07,8.46959231e-06,2.16356756e-05,3.84193562e-05,5.73406341e-05,7.66396178e-05
-3.25,8.28106974e-07,8.4876065e-06,2.16837063e-05,3.85174845e-05,5.75292134e-05,7.70500073e-05
-3.3,8.30359348e-07,8.50543731e-06,2.17310486e-05,3.86136455e-05,5.77117508e-05,7.74398094e-05
-3.35,8.32601461e-07,8.52309018e-06,2.17777278e-05,3.87079342e-05,5.78887938e-05,7.78097677e-05
-3.4,8.34833662e-07,8.54057038e-06,2.18237678e-05,3.88004383e-05,5.80607891e-05,7.81608182e-05
-3.45,8.37056306e-07,8.5578829e-06,2.18691913e-05,3.88912394e-05,5.82281105e-05,7.84941052e-05
-3.5,8.39269759e-07,8.57503258e-06,2.19140198e-05,3.89804135e-05,5.83910775e-05,7.88109686e-05
-3.55,8.41474395e-07,8.59202404e-06,2.19582737e-05,3.90680315e-05,5.85499689e-05,7.91128886e-05
-3.6,8.43670605e-07,8.60886173e-06,2.20019725e-05,3.91541597e-05,5.87050311e-05,7.94013929e-05
-3.65,8.458588e-07,8.62554995e-06,2.20451344e-05,3.92388602e-05,5.8856485e-05,7.96779511e-05
-3.7,8.48039414e-07,8.64209285e-06,2.20877771e-05,3.93221913e-05,5.90045303e-05,7.99438896e-05
-3.75,8.5021291e-07,8.65849444e-06,2.21299173e-05,3.94042077e-05,5.91493487e-05,8.02003473e-05
-3.8,8.52379787e-07,8.67475863e-06,2.21715708e-05,3.9484961e-05,5.92911066e-05,8.04482732e-05
-3.85,8.54540579e-07,8.69088922e-06,2.22127528e-05,3.95644997e-05,5.94299572e-05,8.06884482e-05
-3.9,8.56695868e-07,8.70688995e-06,2.22534778e-05,3.96428697e-05,5.95660418e-05,8.09215178e-05
-3.95,8.58846288e-07,8.72276449e-06,2.22937597e-05,3.97201142e-05,5.96994916e-05,8.11480225e-05
-4.0,8.60992528e-07,8.73851646e-06,2.23336117e-05,3.97962743e-05,5.98304282e-05,8.13684228e-05
-4.05,8.63135343e-07,8.7541495e-06,2.23730464e-05,3.98713885e-05,5.99589649e-05,8.15831183e-05
-4.1,8.65275561e-07,8.76966723e-06,2.2412076e-05,3.99454936e-05,6.00852076e-05,8.1792461e-05
-4.15,8.6741409e-07,8.78507333e-06,2.24507122e-05,4.00186245e-05,6.0209255e-05,8.19967653e-05
-4.2,8.69551922e-07,8.80037156e-06,2.24889661e-05,4.00908143e-05,6.03311997e-05,8.21963147e-05
-4.25,8.71690149e-07,8.81556577e-06,2.25268485e-05,4.01620943e-05,6.04511286e-05,8.2391367e-05
-4.3,8.73829964e-07,8.83065997e-06,2.25643698e-05,4.02324944e-05,6.05691233e-05,8.2582158e-05
-4.35,8.75972676e-07,8.84565835e-06,2.260154e-05,4.03020432e-05,6.06852605e-05,8.27689046e-05
-4.4,8.78119714e-07,8.86056532e-06,2.26383687e-05,4.03707677e-05,6.07996124e-05,8.2951807e-05
-4.45,8.80272639e-07,8.87538559e-06,2.26748655e-05,4.04386937e-05,6.09122473e-05,8.31310505e-05
-4.5,8.82433152e-07,8.89012416e-06,2.27110396e-05,4.0505846e-05,6.10232295e-05,8.33068073e-05
-4.55,8.84603107e-07,8.90478646e-06,2.27468998e-05,4.05722481e-05,6.11326198e-05,8.34792376e-05
-4.6,8.86784515e-07,8.91937831e-06,2.27824552e-05,4.06379225e-05,6.12404758e-05,8.36484909e-05
-4.65,8.88979561e-07,8.93390606e-06,2.28177145e-05,4.07028907e-05,6.13468519e-05,8.38147067e-05
-4.7,8.91190607e-07,8.94837661e-06,2.28526865e-05,4.07671735e-05,6.14517999e-05,8.39780157e-05
-4.75,8.93420208e-07,8.96279751e-06,2.288738e-05,4.08307907e-05,6.15553688e-05,8.41385404e-05
-4.8,8.95671117e-07,8.97717699e-06,2.2921804e-05,4.08937611e-05,6.16576052e-05,8.42963957e-05
-4.85,8.97946301e-07,8.99152408e-06,2.29559675e-05,4.09561031e-05,6.17585533e-05,8.44516898e-05
-4.9,9.00248945e-07,9.00584865e-06,2.298988e-05,4.10178343e-05,6.18582553e-05,8.46045243e-05
-4.95,9.02582468e-07,9.02016151e-06,2.30235513e-05,4.10789717e-05,6.19567512e-05,8.47549951e-05
-5.0,9.04950527e-07,9.03447451e-06,2.30569916e-05,4.11395317e-05,6.20540795e-05,8.49031924e-05
-5.05,9.07357034e-07,9.04880058e-06,2.30902118e-05,4.11995302e-05,6.21502764e-05,8.50492018e-05
-5.1,9.09806158e-07,9.06315386e-06,2.31232235e-05,4.1258983e-05,6.22453768e-05,8.51931038e-05
-5.15,9.12302343e-07,9.07754975e-06,2.3156039e-05,4.1317905e-05,6.2339414e-05,8.53349749e-05
-5.2,9.14850309e-07,9.09200507e-06,2.31886718e-05,4.13763115e-05,6.24324198e-05,8.54748874e-05
-5.25,9.17455069e-07,9.10653807e-06,2.32211362e-05,4.1434217e-05,6.25244246e-05,8.56129098e-05
-5.3,9.20121935e-07,9.12116858e-06,2.32534481e-05,4.14916366e-05,6.26154575e-05,8.57491073e-05
-5.35,9.22856525e-07,9.13591808e-06,2.32856247e-05,4.15485848e-05,6.27055465e-05,8.58835417e-05
-5.4,9.25664774e-07,9.15080983e-06,2.33176848e-05,4.16050769e-05,6.27947184e-05,8.60162717e-05
-5.45,9.28552944e-07,9.16586891e-06,2.33496491e-05,4.1661128e-05,6.28829992e-05,8.61473533e-05
-5.5,9.31527628e-07,9.18112238e-06,2.338154e-05,4.1716754e-05,6.29704136e-05,8.62768396e-05
-5.55,9.34595761e-07,9.19659933e-06,2.34133824e-05,4.17719713e-05,6.30569857e-05,8.64047815e-05
-5.6,9.37764626e-07,9.21233098e-06,2.34452034e-05,4.1826797e-05,6.31427387e-05,8.65312273e-05
-5.65,9.41041865e-07,9.22835083e-06,2.34770329e-05,4.18812495e-05,6.32276954e-05,8.66562231e-05
-5.7,9.44435477e-07,9.24469466e-06,2.35089034e-05,4.1935348e-05,6.33118777e-05,8.67798132e-05
-5.75,9.47953836e-07,9.26140072e-06,2.35408505e-05,4.19891133e-05,6.33953072e-05,8.69020395e-05
-5.8,9.51605689e-07,9.27850975e-06,2.35729131e-05,4.20425679e-05,6.34780052e-05,8.70229426e-05
-5.85,9.55400164e-07,9.2960651e-06,2.36051337e-05,4.20957362e-05,6.35599928e-05,8.7142561e-05
-5.9,9.59346776e-07,9.31411284e-06,2.36375583e-05,4.21486447e-05,6.36412911e-05,8.72609317e-05
-5.95,9.63455433e-07,9.3327018e-06,2.36702371e-05,4.22013223e-05,6.37219213e-05,8.73780903e-05
-6.0,9.67736439e-07,9.35188366e-06,2.37032245e-05,4.2253801e-05,6.38019047e-05,8.7494071e-05
-6.05,9.722005e-07,9.37171309e-06,2.37365793e-05,4.23061154e-05,6.38812636e-05,8.76089066e-05
-6.1,9.76858724e-07,9.39224773e-06,2.3770365e-05,4.23583039e-05,6.39600205e-05,8.77226289e-05
-6.15,9.81722632e-07,9.41354836e-06,2.38046501e-05,4.24104086e-05,6.40381993e-05,8.78352685e-05
-6.2,9.86804154e-07,9.4356789e-06,2.38395085e-05,4.24624755e-05,6.41158248e-05,8.79468553e-05
-6.25,9.92115634e-07,9.45870654e-06,2.38750192e-05,4.25145554e-05,6.41929235e-05,8.80574181e-05
-6.3,9.97669834e-07,9.48270174e-06,2.39112671e-05,4.25667039e-05,6.42695237e-05,8.81669853e-05
-6.35,1.00347994e-06,9.50773835e-06,2.39483431e-05,4.26189816e-05,6.43456559e-05,8.82755846e-05
-6.4,1.00955954e-06,9.53389362e-06,2.39863441e-05,4.26714553e-05,6.4421353e-05,8.83832435e-05
-6.45,1.01592268e-06,9.5612483e-06,2.40253736e-05,4.27241976e-05,6.44966509e-05,8.84899894e-05
-6.5,1.02258379e-06,9.58988664e-06,2.40655415e-05,4.27772875e-05,6.45715889e-05,8.85958496e-05
-6.55,1.02955774e-06,9.6198965e-06,2.41069648e-05,4.28308113e-05,6.46462098e-05,8.87008517e-05
-6.6,1.03685984e-06,9.65136931e-06,2.41497674e-05,4.28848626e-05,6.47205608e-05,8.88050241e-05
