vds,vb1,vb2,vb3,vb4,vb5,vb6
0.0,0.0,0.0,0.0,0.0,0.0,0.0
-0.05,5.01197079e-07,2.97836736e-06,4.83734951e-06,6.30313716e-06,7.50080102e-06,8.50650354e-06
-0.1,8.54983955e-07,5.77814115e-06,9.49965758e-06,1.24379542e-05,1.48405819e-05,1.68591237e-05
-0.15,1.07113059e-06,8.40205349e-06,1.39892366e-05,1.84064262e-05,2.20210474e-05,2.50593477e-05
-0.2,1.17670952e-06,1.08527887e-05,1.83083593e-05,2.42104974e-05,2.90438787e-05,3.31086438e-05
-0.25,1.22248967e-06,1.31329877e-05,2.24592595e-05,2.98520823e-05,3.5910733e-05,4.10084612e-05
-0.3,1.24812205e-06,1.52452539e-05,2.64441334e-05,3.5333066e-05,4.26232449e-05,4.87602311e-05
-0.35,1.26762022e-06,1.71921617e-05,3.02651405e-05,4.06553048e-05,4.91830262e-05,5.63653662e-05
-0.4,1.28470615e-06,1.89762694e-05,3.39244049e-05,4.5820627e-05,5.55916662e-05,6.38252615e-05
-0.45,1.30051291e-06,2.06001402e-05,3.74240162e-05,5.0830833e-05,6.18507328e-05,7.11412942e-05
-0.5,1.3154804e-06,2.20663778e-05,4.07660309e-05,5.56876966e-05,6.7961772e-05,7.83148244e-05
-0.55,1.32982228e-06,2.33776895e-05,4.39524741e-05,6.0392965e-05,7.39263089e-05,8.53471951e-05
-0.6,1.34366252e-06,2.45370037e-05,4.69853405e-05,6.49483594e-05,7.97458478e-05,9.22397324e-05
-0.65,1.35708303e-06,2.55476984e-05,4.98665974e-05,6.93555761e-05,8.54218727e-05,9.8993746e-05
-0.7,1.370143e-06,2.6414053e-05,5.2598186e-05,7.36162864e-05,9.09558474e-05,0.000105610529
-0.75,1.38288793e-06,2.71421357e-05,5.51820255e-05,7.77321381e-05,9.63492163e-05,0.000112091359
-0.8,1.39535426e-06,2.77413903e-05,5.76200168e-05,8.17047553e-05,0.000101603404,0.000118437498
-0.85,1.40757199e-06,2.82267548e-05,5.99140482e-05,8.55357397e-05,0.000106719818,0.000124650192
-0.9,1.41956641e-06,2.86195291e-05,6.20660042e-05,8.92266711e-05,0.000111699845,0.000130730671
-0.95,1.43135908e-06,2.89441182e-05,6.4077777e-05,9.27791082e-05,0.000116544854,0.000136680151
-1.0,1.44296868e-06,2.92218862e-05,6.59512857e-05,9.61945897e-05,0.000121256198,0.000142499834
-1.05,1.4544115e-06,2.94677199e-05,6.76885056e-05,9.94746353e-05,0.00012583521,0.000148190906
-1.1,1.46570188e-06,2.969078e-05,6.92915154e-05,0.000102620747,0.000130283209,0.000153754539
-1.15,1.47685251e-06,2.98965989e-05,7.07625764e-05,0.00010563441,0.000134601495,0.000159191892
-1.2,1.48787472e-06,3.00886754e-05,7.21042644e-05,0.000108517095,0.000138791353,0.00016450411
-1.25,1.49877861e-06,3.02693764e-05,7.33196943e-05,0.000111270262,0.000142854052,0.000169692323
-1.3,1.50957331e-06,3.04404081e-05,7.44128881e-05,0.00011389536,0.000146790846,0.000174757649
-1.35,1.52026702e-06,3.0603065e-05,7.53893381e-05,0.000116393833,0.000150602974,0.000179701194
-1.4,1.53086719e-06,3.07583674e-05,7.62567191e-05,0.000118767127,0.000154291661,0.000184524049
-1.45,1.5413806e-06,3.09071426e-05,7.70254375e-05,0.000121016695,0.000157858119,0.000189227295
-1.5,1.55181343e-06,3.10500759e-05,7.77083909e-05,0.00012314401,0.000161303545,0.000193811998
-1.55,1.5621713e-06,3.11877444e-05,7.83195542e-05,0.000125150581,0.000164629128,0.000198279216
-1.6,1.57245942e-06,3.13206403e-05,7.88720381e-05,0.000127037977,0.00016783604,0.000202629991
-1.65,1.58268252e-06,3.1449188e-05,7.93767911e-05,0.000128807867,0.000170925449,0.000206865356
-1.7,1.592845e-06,3.15737564e-05,7.98423537e-05,0.000130462077,0.000173898509,0.000210986333
-1.75,1.6029509e-06,3.16946687e-05,8.02752353e-05,0.000132002683,0.000176756369,0.000214993934
-1.8,1.61300397e-06,3.18122099e-05,8.06804235e-05,0.000133432147,0.000179500173,0.000218889158
-1.85,1.62300768e-06,3.19266328e-05,8.10618074e-05,0.000134753525,0.00018213106,0.000222672996
-1.9,1.63296525e-06,3.20381628e-05,8.14224819e-05,0.00013597074,0.000184650171,0.000226346429
-1.95,1.64287968e-06,3.21470015e-05,8.17649564e-05,0.000137088888,0.000187058652,0.000229910428
-2.0,1.65275376e-06,3.22533304e-05,8.20912992e-05,0.000138114453,0.000189357657,0.000233365956
-2.05,1.66259012e-06,3.23573133e-05,8.24032383e-05,0.000139055249,0.000191548361,0.000236713968
-2.1,1.67239117e-06,3.24590986e-05,8.27022345e-05,0.000139919977,0.000193631964,0.000239955409
-2.15,1.68215921e-06,3.25588211e-05,8.29895351e-05,0.000140717545,0.000195609713,0.00024309122
-2.2,1.69189637e-06,3.26566038e-05,8.32662144e-05,0.000141456403,0.00019748292,0.000246122331
-2.25,1.70160467e-06,3.2752559e-05,8.35332047e-05,0.000142144144,0.000199252994,0.00024904967
-2.3,1.71128599e-06,3.28467898e-05,8.37913203e-05,0.000142787348,0.000200921493,0.000251874157
-2.35,1.7209421e-06,3.29393908e-05,8.40412775e-05,0.000143391618,0.000202490195,0.00025459671
-2.4,1.73057469e-06,3.30304493e-05,8.42837091e-05,0.000143961683,0.00020396122,0.000257218238
-2.45,1.74018532e-06,3.31200457e-05,8.45191772e-05,0.000144501531,0.000205337194,0.000259739651
-2.5,1.74977549e-06,3.32082545e-05,8.47481837e-05,0.000145014535,0.000206621473,0.000262161853
-2.55,1.75934662e-06,3.32951448e-05,8.49711782e-05,0.000145503558,0.000207818347,0.000264485741
-2.6,1.76890004e-06,3.33807806e-05,8.51885652e-05,0.000145971047,0.000208933129,0.000266712206
-2.65,1.77843701e-06,3.34652216e-05,8.54007101e-05,0.000146419103,0.000209972018,0.000268842129
-2.7,1.78795875e-06,3.35485233e-05,8.56079437e-05,0.000146849542,0.000210941748,0.00027087637
-2.75,1.7974664e-06,3.36307376e-05,8.58105671e-05,0.000147263942,0.000211849148,0.000272815768
-2.8,1.80696106e-06,3.37119131e-05,8.60088543e-05,0.000147663682,0.000212700765,0.000274661137
-2.85,1.81644377e-06,3.3792095e-05,8.62030561e-05,0.000148049973,0.00021350263,0.000276413284
-2.9,1.82591555e-06,3.38713261e-05,8.63934021e-05,0.000148423885,0.000214260139,0.00027807308
-2.95,1.83537737e-06,3.39496462e-05,8.65801035e-05,0.000148786367,0.00021497805,0.0002796416
-3.0,1.84483018e-06,3.40270928e-05,8.67633546e-05,0.000149138262,0.000215660512,0.000281120388
-3.05,1.85427488e-06,3.41037015e-05,8.69433348e-05,0.000149480328,0.000216311136,0.000282511767
-3.1,1.86371239e-06,3.41795055e-05,8.71202101e-05,0.000149813241,0.000216933055,0.000283819113
-3.15,1.8731436e-06,3.42545362e-05,8.72941342e-05,0.000150137615,0.000217528999,0.000285046905
-3.2,1.88256939e-06,3.43288235e-05,8.74652497e-05,0.000150454,0.000218101346,0.000286200536
-3.25,1.89199066e-06,3.44023954e-05,8.76336895e-05,0.000150762899,0.000218652179,0.000287285935
-3.3,1.90140831e-06,3.44752786e-05,8.77995773e-05,0.000151064768,0.000219183328,0.000288309162
-3.35,1.91082329e-06,3.45474984e-05,8.79630284e-05,0.000151360022,0.000219696406,0.000289276093
-3.4,1.92023656e-06,3.46190789e-05,8.81241507e-05,0.000151649041,0.000220192843,0.000290192205
-3.45,1.92964912e-06,3.46900431e-05,8.82830452e-05,0.000151932176,0.000220673908,0.000291062484
-3.5,1.93906205e-06,3.47604129e-05,8.84398066e-05,0.000152209746,0.000221140735,0.000291891391
-3.55,1.94847649e-06,3.48302092e-05,8.85945236e-05,0.000152482047,0.00022159434,0.000292682888
-3.6,1.95789366e-06,3.48994522e-05,8.87472798e-05,0.000152749352,0.000222035635,0.00029344047
-3.65,1.96731488e-06,3.49681615e-05,8.88981537e-05,0.000153011913,0.000222465443,0.000294167221
-3.7,1.97674161e-06,3.50363559e-05,8.90472195e-05,0.000153269964,0.000222884507,0.000294865857
-3.75,1.98617542e-06,3.51040537e-05,8.9194547e-05,0.000153523722,0.000223293503,0.000295538777
-3.8,1.99561803e-06,3.51712731e-05,8.93402023e-05,0.00015377339,0.000223693045,0.000296188105
-3.85,2.00507135e-06,3.52380318e-05,8.94842479e-05,0.000154019154,0.000224083694,0.000296815724
-3.9,2.01453748e-06,3.53043476e-05,8.96267431e-05,0.000154261192,0.000224465963,0.000297423311
-3.95,2.02401871e-06,3.53702383e-05,8.97677441e-05,0.000154499668,0.000224840321,0.000298012363
-4.0,2.03351761e-06,3.54357219e-05,8.99073045e-05,0.000154734735,0.000225207202,0.000298584219
-4.05,2.04303698e-06,3.55008169e-05,9.00454755e-05,0.000154966537,0.000225567002,0.000299140085
-4.1,2.05257991e-06,3.55655421e-05,9.01823058e-05,0.00015519521,0.00022592009,0.000299681045
-4.15,2.06214982e-06,3.56299174e-05,9.03178424e-05,0.000155420881,0.000226266806,0.000300208081
-4.2,2.07175046e-06,3.56939637e-05,9.04521304e-05,0.000155643669,0.000226607465,0.000300722082
-4.25,2.08138593e-06,3.57577028e-05,9.05852136e-05,0.000155863688,0.000226942359,0.000301223857
-4.3,2.09106077e-06,3.58211582e-05,9.07171344e-05,0.000156081045,0.00022727176,0.000301714142
-4.35,2.10077989e-06,3.58843552e-05,9.08479346e-05,0.000156295839,0.000227595921,0.000302193611
-4.4,2.1105487e-06,3.5947321e-05,9.0977655e-05,0.000156508167,0.000227915081,0.000302662881
-4.45,2.12037307e-06,3.60100849e-05,9.11063367e-05,0.000156718118,0.000228229458,0.000303122517
-4.5,2.1302594e-06,3.60726792e-05,9.12340203e-05,0.000156925779,0.000228539261,0.000303573041
-4.55,2.14021463e-06,3.61351388e-05,9.13607473e-05,0.000157131232,0.000228844683,0.000304014934
-4.6,2.1502463e-06,3.61975019e-05,9.14865598e-05,0.000157334554,0.000229145906,0.000304448639
-4.65,2.16036252e-06,3.62598104e-05,9.16115015e-05,0.000157535821,0.000229443101,0.000304874567
-4.7,2.1705721e-06,3.632211e-05,9.17356176e-05,0.000157735104,0.00022973643,0.0003052931
-4.75,2.18088448e-06,3.63844509e-05,9.18589558e-05,0.000157932474,0.000230026043,0.000305704592
-4.8,2.19130985e-06,3.64468879e-05,9.19815665e-05,0.000158127998,0.000230312085,0.000306109372
-4.85,2.20185912e-06,3.65094809e-05,9.21035036e-05,0.000158321741,0.00023059469,0.000306507748
-4.9,2.21254399e-06,3.65722954e-05,9.22248252e-05,0.000158513769,0.000230873988,0.000306900007
-4.95,2.22337696e-06,3.66354026e-05,9.23455938e-05,0.000158704146,0.000231150098,0.000307286417
-5.0,2.23437139e-06,3.66988802e-05,9.24658775e-05,0.000158892936,0.000231423137,0.000307667229
-5.05,2.24554148e-06,3.67628128e-05,9.25857506e-05,0.000159080205,0.000231693215,0.00030804268
-5.1,2.25690239e-06,3.68272918e-05,9.27052941e-05,0.000159266018,0.000231960436,0.00030841299
-5.15,2.26847017e-06,3.68924167e-05,9.28245969e-05,0.000159450443,0.000232224902,0.000308778367
-5.2,2.28026187e-06,3.69582946e-05,9.29437565e-05,0.000159633552,0.000232486709,0.000309139008
-5.25,2.29229553e-06,3.70250413e-05,9.30628796e-05,0.00015981542,0.000232745952,0.000309495096
-5.3,2.30459022e-06,3.70927816e-05,9.31820836e-05,0.000159996124,0.00023300272,0.000309846807
-5.35,2.31716608e-06,3.71616495e-05,9.3301497e-05,0.000160175749,0.000233257102,0.000310194306
-5.4,2.33004434e-06,3.72317889e-05,9.34212605e-05,0.000160354387,0.000233509188,0.000310537748
-5.45,2.34324734e-06,3.73033538e-05,9.35415281e-05,0.000160532134,0.000233759063,0.000310877283
-5.5,2.35679857e-06,3.73765088e-05,9.36624681e-05,0.000160709099,0.000234006814,0.00031121305
-5.55,2.37072269e-06,3.74514296e-05,9.3784264e-05,0.000160885397,0.000234252531,0.000311545185
-5.6,2.38504556e-06,3.75283035e-05,9.39071157e-05,0.000161061157,0.000234496303,0.000311873816
-5.65,2.39979428e-06,3.76073293e-05,9.40312405e-05,0.000161236519,0.000234738225,0.000312199067
-5.7,2.41499718e-06,3.76887183e-05,9.4156874e-05,0.000161411637,0.000234978392,0.000312521056
-5.75,2.43068386e-06,3.77726942e-05,9.42842713e-05,0.00016158668,0.000235216908,0.0003128399
-5.8,2.44688522e-06,3.78594938e-05,9.44137082e-05,0.000161761835,0.000235453883,0.00031315571
-5.85,2.46363349e-06,3.79493671e-05,9.45454821e-05,0.000161937307,0.000235689433,0.000313468596
-5.9,2.48096221e-06,3.80425777e-05,9.46799129e-05,0.000162113321,0.000235923685,0.000313778669
-5.95,2.49890631e-06,3.81394034e-05,9.48173445e-05,0.000162290122,0.000236156776,0.000314086036
-6.0,2.51750205e-06,3.8240136e-05,9.49581455e-05,0.000162467982,0.000236388857,0.000314390808
-6.05,2.53678711e-06,3.8345082e-05,9.51027103e-05,0.000162647194,0.000236620092,0.000314693096
-6.1,2.55680059e-06,3.84545628e-05,9.52514601e-05,0.000162828082,0.000236850661,0.000314993016
-6.15,2.57758299e-06,3.85689147e-05,9.5404844e-05,0.000163010996,0.000237080763,0.000315290687
-6.2,2.59917626e-06,3.86884894e-05,9.55633399e-05,0.000163196316,0.000237310617,0.000315586235
-6.25,2.6216238e-06,3.88136544e-05,9.57274553e-05,0.000163384457,0.000237540464,0.000315879793
-6.3,2.64497047e-06,3.89447926e-05,9.58977284e-05,0.000163575867,0.00023777057,0.000316171505
-6.35,2.66926261e-06,3.90823033e-05,9.60747291e-05,0.000163771028,0.000238001226,0.000316461524
-6.4,2.69454807e-06,3.92266015e-05,9.62590595e-05,0.000163970462,0.000238232755,0.000316750017
-6.45,2.72087615e-06,3.93781188e-05,9.64513549e-05,0.00016417473,0.00023846551,0.000317037167
-6.5,2.7482977e-06,3.95373032e-05,9.66522848e-05,0.000164384434,0.000238699876,0.000317323173
-6.55,2.77686504e-06,3.97046192e-05,9.68625531e-05,0.00016460022,0.000238936278,0.000317608256
-6.6,2.80663206e-06,3.98805479e-05,9.70828995e-05,0.000164822778,0.000239175178,0.000317892658
