vds,vb1,vb2,vb3,vb4,vb5,vb6
0.0,0.0,0.0,0.0,0.0,0.0,0.0
-0.05,4.10404499e-06,3.11855317e-05,5.08079553e-05,6.581393e-05,7.77333135e-05,8.74731205e-05
-0.1,6.71709319e-06,6.04483167e-05,9.97490382e-05,0.00012984736,0.000153775004,0.000173339055
-0.15,8.03475953e-06,8.78184152e-05,0.000146848508,0.000192121789,0.000228143611,0.000257613982
-0.2,8.55199906e-06,0.000113325357,0.000192131179,0.000252658375,0.000300857404,0.00034031386
-0.25,8.79025623e-06,0.000136998192,0.000235621431,0.000311477939,0.000371934389,0.00042145444
-0.3,8.95437186e-06,0.000158865568,0.000277343223,0.000368600977,0.000441392312,0.000501051261
-0.35,9.09348065e-06,0.00017895583,0.000317320104,0.000424047657,0.000509248666,0.000579119658
-0.4,9.22066225e-06,0.000197297194,0.000355575224,0.000477837838,0.000575520692,0.000655674763
-0.45,9.34055105e-06,0.000213918015,0.00039213135,0.000529991067,0.000640225386,0.000730731512
-0.5,9.45527541e-06,0.000228847265,0.000427010877,0.000580526589,0.000703379505,0.000804304641
-0.55,9.56602546e-06,0.000242115399,0.000460235846,0.000629463355,0.000764999565,0.000876408699
-0.6,9.67356527e-06,0.000253756012,0.00049182796,0.000676820024,0.000825101854,0.000947058041
-0.65,9.77843316e-06,0.000263809116,0.00052180861,0.000722614976,0.000883702427,0.00101626684
-0.7,9.88103279e-06,0.000272327712,0.000550198893,0.000766866311,0.000940817117,0.00108404908
-0.75,9.98167998e-06,0.000279390475,0.000577019652,0.000809591865,0.000996461538,0.00115041856
-0.8,1.00806293e-05,0.000285122551,0.000602291519,0.000850809206,0.00105065109,0.00121538893
-0.85,1.01780906e-05,0.000289716152,0.000626034974,0.000890535652,0.00110340094,0.00127897362
-0.9,1.02742395e-05,0.000293421824,0.000648270434,0.000928788272,0.00115472609,0.00134118593
-0.95,1.03692254e-05,0.00029649282,0.000669018382,0.000965583896,0.0012046413,0.00140203897
-1.0,1.04631763e-05,0.000299127434,0.000688299569,0.00100093912,0.00125316114,0.00146154569
-1.05,1.0556203e-05,0.000301456449,0.000706135327,0.00103487034,0.00130029999,0.00151971886
-1.1,1.06484024e-05,0.00030356107,0.000722548091,0.0010673937,0.00134607204,0.00157657113
-1.15,1.07398596e-05,0.000305492722,0.000737562268,0.00109852519,0.00139049129,0.00163211494
-1.2,1.08306494e-05,0.000307285733,0.000751205724,0.0011282806,0.00143357155,0.00168636263
-1.25,1.09208389e-05,0.000308964336,0.000763512314,0.00115667555,0.00147532647,0.00173932633
-1.3,1.10104874e-05,0.000310546462,0.000774526067,0.00118372553,0.0015157695,0.00179101807
-1.35,1.10996483e-05,0.000312045876,0.000784307451,0.0012094459,0.00155491393,0.00184144972
-1.4,1.11883698e-05,0.000313473452,0.000792940825,0.00123385197,0.00159277289,0.00189063298
-1.45,1.12766952e-05,0.000314837975,0.000800538999,0.00125695901,0.00162935934,0.00193857944
-1.5,1.13646639e-05,0.000316146666,0.000807238513,0.00127878235,0.00166468609,0.00198530054
-1.55,1.14523115e-05,0.000317405548,0.000813184015,0.00129933747,0.00169876578,0.00203080758
-1.6,1.15396708e-05,0.000318619709,0.000818510111,0.00131864018,0.00173161092,0.00207511174
-1.65,1.16267714e-05,0.000319793485,0.00082333047,0.00133670686,0.00176323385,0.00211822404
-1.7,1.17136408e-05,0.000320930609,0.000827735901,0.00135355485,0.00179364679,0.0021601554
-1.75,1.18003041e-05,0.000322034318,0.000831797358,0.00136920313,0.0018228618,0.00220091659
-1.8,1.18867843e-05,0.00032310744,0.000835570181,0.00138367344,0.00185089081,0.00224051827
-1.85,1.19731028e-05,0.000324152458,0.000839097883,0.00139699221,0.00187774558,0.00227897097
-1.9,1.20592794e-05,0.000325171569,0.000842415091,0.00140919359,0.00190343775,0.0023162851
-1.95,1.21453323e-05,0.00032616672,0.00084554972,0.00142032366,0.00192797875,0.00235247092
-2.0,1.22312784e-05,0.000327139652,0.00084852456,0.00143044468,0.00195137984,0.0023875386
-2.05,1.23171337e-05,0.000328091924,0.000851358439,0.0014396367,0.00197365199,0.00242149817
-2.1,1.24029127e-05,0.000329024938,0.000854067076,0.00144799395,0.00199480586,0.00245435951
-2.15,1.24886291e-05,0.00032993996,0.000856663725,0.00145561681,0.00201485166,0.00248613237
-2.2,1.25742959e-05,0.000330838137,0.00085915966,0.001462603,0.002033799,0.00251682636
-2.25,1.2659925e-05,0.000331720512,0.00086156455,0.00146904129,0.0020516568,0.0025464509
-2.3,1.27455276e-05,0.000332588036,0.000863886746,0.00147500886,0.00206843333,0.0025750152
-2.35,1.28311142e-05,0.000333441577,0.000866133511,0.00148057098,0.00208413683,0.00260252824
-2.4,1.29166949e-05,0.000334281931,0.000868311199,0.00148578225,0.00209877731,0.00262899867
-2.45,1.30022789e-05,0.000335109832,0.000870425401,0.00149068806,0.00211237024,0.00265443471
-2.5,1.3087875e-05,0.000335925951,0.00087248106,0.00149532627,0.00212494201,0.00267884403
-2.55,1.31734915e-05,0.000336730912,0.00087448257,0.00149972854,0.00213653539,0.0027022335
-2.6,1.32591363e-05,0.00033752529,0.000876433853,0.00150392149,0.00214721162,0.00272460888
-2.65,1.33448169e-05,0.000338309617,0.000878338423,0.00150792768,0.00215704733,0.00274597444
-2.7,1.34305403e-05,0.000339084388,0.000880199441,0.00151176632,0.00216612751,0.00276633236
-2.75,1.35163133e-05,0.000339850064,0.000882019762,0.00151545388,0.00217453789,0.00278568226
-2.8,1.36021423e-05,0.000340607074,0.000883801973,0.00151900459,0.00218235922,0.00280402088
-2.85,1.36880337e-05,0.000341355818,0.000885548422,0.00152243079,0.00218966421,0.00282134261
-2.9,1.37739934e-05,0.000342096669,0.000887261251,0.00152574326,0.0021965165,0.00283764162
-2.95,1.38600272e-05,0.000342829979,0.000888942418,0.00152895147,0.00220297089,0.00285291627
-3.0,1.39461409e-05,0.000343556075,0.000890593715,0.00153206376,0.00220907426,0.00286717562
-3.05,1.40323402e-05,0.000344275267,0.000892216789,0.00153508754,0.00221486655,0.00288044552
-3.1,1.41186307e-05,0.000344987842,0.000893813157,0.00153802938,0.00222038187,0.00289277158
-3.15,1.42050182e-05,0.000345694076,0.000895384218,0.00154089518,0.00222564938,0.002904217
-3.2,1.42915083e-05,0.000346394224,0.000896931264,0.00154369022,0.00223069416,0.00291485652
-3.25,1.43781071e-05,0.000347088531,0.000898455496,0.00154641927,0.00223553782,0.00292476934
-3.3,1.44648209e-05,0.000347777225,0.000899958024,0.00154908661,0.00224019913,0.0029340331
-3.35,1.45516563e-05,0.000348460527,0.000901439883,0.00155169615,0.00224469442,0.00294272018
-3.4,1.46386202e-05,0.000349138643,0.000902902036,0.00155425143,0.002249038,0.00295089574
-3.45,1.47257202e-05,0.000349811771,0.000904345382,0.00155675568,0.00225324245,0.00295861732
-3.5,1.48129645e-05,0.0003504801,0.000905770762,0.00155921187,0.0022573189,0.0029659351
-3.55,1.49003622e-05,0.000351143813,0.00090717896,0.00156162269,0.0022612772,0.00297289258
-3.6,1.49879229e-05,0.000351803084,0.000908570714,0.00156399064,0.00226512615,0.00297952743
-3.65,1.50756577e-05,0.000352458084,0.000909946716,0.00156631801,0.00226887362,0.00298587222
-3.7,1.51635785e-05,0.000353108979,0.000911307615,0.00156860691,0.00227252666,0.00299195522
-3.75,1.52516988e-05,0.000353755931,0.000912654023,0.0015708593,0.00227609164,0.00299780104
-3.8,1.53400334e-05,0.000354399103,0.00091398652,0.001573077,0.00227957431,0.00300343113
-3.85,1.54285989e-05,0.000355038655,0.00091530565,0.00157526168,0.00228297987,0.00300886433
-3.9,1.55174136e-05,0.000355674753,0.00091661193,0.00157741491,0.00228631307,0.00301411719
-3.95,1.5606498e-05,0.000356307561,0.000917905851,0.00157953816,0.00228957822,0.00301920433
-4.0,1.56958749e-05,0.000356937251,0.000919187879,0.00158163277,0.00229277929,0.00302413875
-4.05,1.57855693e-05,0.000357564002,0.000920458461,0.00158370003,0.00229591989,0.003028932
-4.1,1.58756092e-05,0.000358188002,0.000921718024,0.00158574111,0.00229900334,0.00303359439
-4.15,1.59660253e-05,0.000358809448,0.000922966978,0.00158775715,0.00230203271,0.00303813519
-4.2,1.60568515e-05,0.000359428554,0.000924205723,0.00158974917,0.00230501084,0.00304256273
-4.25,1.61481253e-05,0.000360045548,0.000925434647,0.00159171818,0.00230794032,0.00304688453
-4.3,1.62398875e-05,0.000360660677,0.000926654128,0.0015936651,0.00231082358,0.0030511074
-4.35,1.63321832e-05,0.000361274212,0.000927864545,0.0015955908,0.00231366288,0.00305523753
-4.4,1.64250614e-05,0.000361886447,0.000929066273,0.00159749611,0.00231646029,0.00305928055
-4.45,1.65185757e-05,0.000362497704,0.00093025969,0.00159938182,0.00231921777,0.00306324161
-4.5,1.66127844e-05,0.000363108337,0.000931445182,0.00160124867,0.00232193714,0.00306712541
-4.55,1.67077507e-05,0.000363718735,0.000932623146,0.00160309738,0.00232462007,0.00307093626
-4.6,1.68035434e-05,0.000364329326,0.000933793996,0.00160492861,0.00232726818,0.00307467816
-4.65,1.69002366e-05,0.000364940579,0.000934958165,0.00160674304,0.00232988293,0.00307835474
-4.7,1.69979104e-05,0.000365553012,0.000936116113,0.00160854128,0.00233246574,0.00308196941
-4.75,1.70966511e-05,0.000366167189,0.000937268334,0.00161032396,0.00233501791,0.00308552528
-4.8,1.71965513e-05,0.000366783734,0.000938415358,0.00161209167,0.00233754068,0.00308902526
-4.85,1.72977105e-05,0.000367403325,0.000939557761,0.001613845,0.00234003522,0.00309247205
-4.9,1.74002353e-05,0.000368026706,0.000940696171,0.00161558455,0.00234250263,0.00309586814
-4.95,1.75042395e-05,0.000368654687,0.000941831276,0.0016173109,0.00234494395,0.00309921588
-5.0,1.76098447e-05,0.00036928815,0.00094296383,0.00161902467,0.00234736019,0.00310251745
-5.05,1.77171804e-05,0.000369928054,0.000944094664,0.00162072648,0.00234975229,0.00310577489
-5.1,1.78263842e-05,0.000370575438,0.000945224693,0.00162241696,0.00235212116,0.0031089901
-5.15,1.79376023e-05,0.000371231427,0.000946354923,0.0016240968,0.00235446767,0.00311216488
-5.2,1.80509897e-05,0.000371897236,0.000947486465,0.00162576671,0.00235679266,0.00311530091
-5.25,1.81667105e-05,0.000372574175,0.000948620542,0.00162742747,0.00235909696,0.00311839977
-5.3,1.82849382e-05,0.000373263651,0.000949758498,0.0016290799,0.00236138136,0.00312146296
-5.35,1.84058557e-05,0.000373967176,0.000950901809,0.00163072491,0.00236364668,0.00312449188
-5.4,1.85296559e-05,0.000374686369,0.000952052095,0.00163236348,0.00236589371,0.00312748786
-5.45,1.86565421e-05,0.000375422963,0.00095321113,0.00163399669,0.00236812324,0.00313045218
-5.5,1.87867276e-05,0.000376178806,0.00095438085,0.00163562573,0.0023703361,0.00313338603
-5.55,1.89204366e-05,0.000376955865,0.000955563369,0.0016372519,0.00237253314,0.00313629057
-5.6,1.90579042e-05,0.000377756235,0.000956760986,0.00163887667,0.00237471525,0.0031391669
-5.65,1.91993764e-05,0.000378582137,0.000957976198,0.00164050161,0.00237688334,0.00314201608
-5.7,1.9345111e-05,0.000379435927,0.000959211711,0.00164212851,0.00237903842,0.00314483915
-5.75,1.94953769e-05,0.000380320094,0.000960470453,0.0016437593,0.00238118156,0.00314763712
-5.8,1.96504552e-05,0.00038123727,0.00096175558,0.00164539613,0.00238331391,0.00315041098
-5.85,1.98106387e-05,0.000382190229,0.000963070493,0.00164704137,0.00238543675,0.00315316173
-5.9,1.99762327e-05,0.00038318189,0.000964418847,0.00164869761,0.00238755144,0.00315589036
-5.95,2.01475546e-05,0.000384215325,0.00096580456,0.00165036771,0.00238965952,0.00315859788
-6.0,2.03249345e-05,0.000385293757,0.000967231827,0.00165205479,0.00239176268,0.00316128534
-6.05,2.05087154e-05,0.000386420563,0.000968705127,0.00165376225,0.00239386276,0.00316395381
-6.1,2.06992531e-05,0.00038759928,0.000970229237,0.00165549381,0.00239596182,0.00316660445
-6.15,2.08969164e-05,0.000388833605,0.00097180924,0.00165725353,0.00239806215,0.00316923847
-6.2,2.11020876e-05,0.000390127399,0.000973450534,0.0016590458,0.00240016626,0.00317185715
-6.25,2.13151621e-05,0.000391484687,0.000975158845,0.00166087537,0.00240227694,0.00317446193
-6.3,2.15365489e-05,0.000392909659,0.000976940231,0.00166274739,0.00240439726,0.00317705432
-6.35,2.17666707e-05,0.000394406677,0.000978801094,0.0016646674,0.00240653062,0.00317963602
-6.4,2.20059641e-05,0.000395980272,0.000980748191,0.00166664137,0.00240868074,0.00318220889
-6.45,2.22548792e-05,0.000397635144,0.000982788634,0.00166867572,0.00241085171,0.00318477496
-6.5,2.25138804e-05,0.00039937617,0.000984929907,0.00167077732,0.00241304804,0.00318733651
-6.55,2.2783446e-05,0.000401208396,0.000987179867,0.00167295351,0.00241527462,0.00318989605
-6.6,2.30640685e-05,0.000403137047,0.000989546751,0.00167521214,0.00241753681,0.00319245637
