vds,vb1,vb2,vb3,vb4,vb5,vb6
0.0,0.0,0.0,0.0,0.0,0.0,0.0
-0.05,4.37310012e-07,2.68047985e-06,4.38247209e-06,5.73237116e-06,6.83948864e-06,7.77131846e-06
-0.1,7.41504476e-07,5.20038048e-06,8.60827862e-06,1.13144758e-05,1.3535458e-05,1.54056343e-05
-0.15,9.22011017e-07,7.56189685e-06,1.26792752e-05,1.67479002e-05,2.0089279e-05,2.29041447e-05
-0.2,1.00580425e-06,9.76719097e-06,1.65972891e-05,2.20342083e-05,2.6502305e-05,3.02680328e-05
-0.25,1.0403819e-06,1.18183955e-05,2.03641194e-05,2.71749426e-05,3.27758725e-05,3.74984684e-05
-0.3,1.05922238e-06,1.37176189e-05,2.39815384e-05,3.21716243e-05,3.8911301e-05,4.45966075e-05
-0.35,1.07328189e-06,1.54669526e-05,2.7451292e-05,3.70257536e-05,4.49098937e-05,5.15635929e-05
-0.4,1.08542531e-06,1.7068483e-05,3.07751003e-05,4.17388104e-05,5.07729376e-05,5.84005546e-05
-0.45,1.09653771e-06,1.85243103e-05,3.39546589e-05,4.63122544e-05,5.65017035e-05,6.51086093e-05
-0.5,1.10696876e-06,1.98365816e-05,3.69916396e-05,5.07475258e-05,6.20974467e-05,7.16888613e-05
-0.55,1.11689039e-06,2.10075492e-05,3.98876914e-05,5.50460454e-05,6.75614068e-05,7.81424021e-05
-0.6,1.12640296e-06,2.20396818e-05,4.2644442e-05,5.92092151e-05,7.28948084e-05,8.44703112e-05
-0.65,1.13557286e-06,2.29358797e-05,4.52634993e-05,6.32384184e-05,7.8098861e-05,9.06736555e-05
-0.7,1.14444806e-06,2.36999052e-05,4.77464532e-05,6.71350208e-05,8.31747595e-05,9.67534903e-05
-0.75,1.15306531e-06,2.43372302e-05,5.00948787e-05,7.09003701e-05,8.81236841e-05,0.000102710859
-0.8,1.16145399e-06,2.48565543e-05,5.23103385e-05,7.45357971e-05,9.29468011e-05,0.000108546793
-0.85,1.16963824e-06,2.52718156e-05,5.43943889e-05,7.80426161e-05,9.76452627e-05,0.000114262312
-0.9,1.17763833e-06,2.56029525e-05,5.63485862e-05,8.14221251e-05,0.000102220207,0.000119858426
-0.95,1.18547155e-06,2.58727084e-05,5.81744972e-05,8.46756069e-05,0.00010667276,0.000125336132
-1.0,1.19315281e-06,2.6100822e-05,5.98737154e-05,8.78043296e-05,0.000111004033,0.000130696417
-1.05,1.20069514e-06,2.63009146e-05,6.14478863e-05,9.08095473e-05,0.000115215124,0.000135940257
-1.1,1.20810997e-06,2.64812861e-05,6.2898748e-05,9.36925012e-05,0.000119307121,0.000141068617
-1.15,1.2154074e-06,2.66468964e-05,6.42281995e-05,9.64544207e-05,0.000123281098,0.000146082452
-1.2,1.22259645e-06,2.68008457e-05,6.54384144e-05,9.90965251e-05,0.000127138115,0.000150982707
-1.25,1.22968516e-06,2.69452072e-05,6.65320356e-05,0.000101620025,0.000130879225,0.000155770316
-1.3,1.23668078e-06,2.70814593e-05,6.75124982e-05,0.000104026126,0.000134505465,0.000160446203
-1.35,1.24358983e-06,2.72107131e-05,6.8384535e-05,0.000106316029,0.000138017864,0.000165011285
-1.4,1.25041824e-06,2.7333838e-05,6.91548504e-05,0.000108490939,0.000141417439,0.000169466466
-1.45,1.25717136e-06,2.74515346e-05,6.98327254e-05,0.000110552068,0.000144705198,0.000173812641
-1.5,1.26385412e-06,2.75643806e-05,7.04299833e-05,0.000112500648,0.000147882138,0.000178050698
-1.55,1.27047097e-06,2.76728603e-05,7.09598212e-05,0.000114337939,0.000150949248,0.000182181515
-1.6,1.27702605e-06,2.7777386e-05,7.14349209e-05,0.000116065256,0.000153907509,0.000186205961
-1.65,1.28352311e-06,2.78783117e-05,7.18659978e-05,0.000117683996,0.000156757894,0.000190124895
-1.7,1.28996563e-06,2.79759449e-05,7.22613923e-05,0.000119195687,0.000159501369,0.000193939171
-1.75,1.29635683e-06,2.80705545e-05,7.26273837e-05,0.000120602066,0.000162138897,0.000197649632
-1.8,1.30269968e-06,2.81623772e-05,7.29687043e-05,0.000121905195,0.000164671435,0.000201257115
-1.85,1.30899693e-06,2.82516228e-05,7.3288983e-05,0.000123107635,0.000167099941,0.000204762447
-1.9,1.31525113e-06,2.83384778e-05,7.35910658e-05,0.000124212699,0.000169425374,0.000208166451
-1.95,1.32146467e-06,2.84231094e-05,7.38772329e-05,0.000125224747,0.000171648698,0.000211469941
-2.0,1.32763976e-06,2.85056677e-05,7.41493455e-05,0.000126149459,0.000173770886,0.000214673724
-2.05,1.33377848e-06,2.85862882e-05,7.44089467e-05,0.000126993887,0.000175792931,0.000217778603
-2.1,1.33988275e-06,2.86650933e-05,7.46573332e-05,0.000127766146,0.000177715851,0.000220785373
-2.15,1.3459544e-06,2.87421944e-05,7.48956064e-05,0.000128474773,0.000179540709,0.000223694826
-2.2,1.35199511e-06,2.88176931e-05,7.51247113e-05,0.000129128007,0.000181268625,0.000226507747
-2.25,1.35800649e-06,2.8891682e-05,7.53454648e-05,0.000129733298,0.000182900814,0.000229224919
-2.3,1.36399002e-06,2.89642462e-05,7.55585789e-05,0.000130297092,0.000184438628,0.000231847122
-2.35,1.36994713e-06,2.90354636e-05,7.57646777e-05,0.000130824841,0.000185883621,0.000234375134
-2.4,1.37587915e-06,2.91054062e-05,7.59643119e-05,0.000131321107,0.000187237647,0.000236809732
-2.45,1.38178732e-06,2.91741402e-05,7.61579695e-05,0.000131789706,0.000188502999,0.000239151693
-2.5,1.38767283e-06,2.9241727e-05,7.63460854e-05,0.000132233838,0.000189682584,0.000241401797
-2.55,1.39353681e-06,2.93082235e-05,7.65290489e-05,0.000132656199,0.000190780101,0.000243560828
-2.6,1.39938032e-06,2.93736824e-05,7.67072095e-05,0.000133059081,0.000191800162,0.000245629575
-2.65,1.40520437e-06,2.94381528e-05,7.68808827e-05,0.000133444437,0.000192748244,0.000247608834
-2.7,1.41100992e-06,2.95016805e-05,7.70503538e-05,0.00013381395,0.000193630447,0.000249499415
-2.75,1.41679787e-06,2.95643082e-05,7.72158821e-05,0.000134169074,0.000194453123,0.000251302138
-2.8,1.42256912e-06,2.96260757e-05,7.73777034e-05,0.000134511076,0.000195222491,0.000253017846
-2.85,1.42832449e-06,2.96870204e-05,7.75360335e-05,0.000134841063,0.000195944364,0.000254647419
-2.9,1.43406478e-06,2.97471773e-05,7.76910696e-05,0.000135160011,0.000196623995,0.000256191804
-2.95,1.43979078e-06,2.98065793e-05,7.78429931e-05,0.000135468783,0.000197266028,0.000257652088
-3.0,1.44550323e-06,2.98652572e-05,7.79919706e-05,0.000135768145,0.000197874522,0.000259029628
-3.05,1.45120288e-06,2.99232403e-05,7.81381561e-05,0.000136058781,0.000198453,0.000260326246
-3.1,1.45689043e-06,2.99805558e-05,7.82816917e-05,0.000136341303,0.000199004514,0.000261544464
-3.15,1.46256662e-06,3.00372296e-05,7.84227091e-05,0.000136616262,0.00019953171,0.000262687679
-3.2,1.46823214e-06,3.00932863e-05,7.85613306e-05,0.000136884155,0.000200036889,0.000263760183
-3.25,1.47388771e-06,3.01487489e-05,7.86976695e-05,0.000137145433,0.000200522055,0.000264766972
-3.3,1.47953405e-06,3.02036394e-05,7.88318319e-05,0.000137400503,0.000200988964,0.000265713438
-3.35,1.48517192e-06,3.02579786e-05,7.89639163e-05,0.000137649738,0.000201439157,0.000266605031
-3.4,1.49080209e-06,3.03117862e-05,7.90940149e-05,0.000137893479,0.000201873994,0.000267446994
-3.45,1.49642536e-06,3.03650813e-05,7.9222214e-05,0.000138132036,0.000202294682,0.000268244197
-3.5,1.50204258e-06,3.04178818e-05,7.93485943e-05,0.000138365695,0.000202702292,0.00026900106
-3.55,1.50765467e-06,3.0470205e-05,7.94732318e-05,0.00013859472,0.000203097781,0.000269721532
-3.6,1.51326259e-06,3.05220676e-05,7.95961976e-05,0.000138819353,0.000203482007,0.00027040911
-3.65,1.5188674e-06,3.05734856e-05,7.97175588e-05,0.000139039818,0.000203855741,0.00027106688
-3.7,1.52447023e-06,3.06244747e-05,7.98373786e-05,0.000139256323,0.000204219679,0.000271697561
-3.75,1.53007233e-06,3.06750501e-05,7.99557165e-05,0.00013946906,0.000204574451,0.000272303547
-3.8,1.53567506e-06,3.07252268e-05,8.00726289e-05,0.000139678209,0.000204920628,0.00027288695
-3.85,1.54127992e-06,3.07750195e-05,8.0188169e-05,0.000139883935,0.000205258731,0.000273449638
-3.9,1.54688854e-06,3.08244432e-05,8.03023874e-05,0.000140086396,0.000205589235,0.000273993269
-3.95,1.55250273e-06,3.08735126e-05,8.04153319e-05,0.000140285735,0.000205912576,0.000274519318
-4.0,1.55812446e-06,3.0922243e-05,8.05270482e-05,0.000140482088,0.000206229152,0.0002750291
-4.05,1.56375593e-06,3.09706498e-05,8.06375797e-05,0.000140675584,0.000206539331,0.000275523793
-4.1,1.56939952e-06,3.10187491e-05,8.07469681e-05,0.00014086634,0.00020684345,0.000276004455
-4.15,1.57505788e-06,3.10665577e-05,8.08552533e-05,0.000141054469,0.000207141821,0.000276472041
-4.2,1.58073389e-06,3.11140933e-05,8.09624737e-05,0.000141240078,0.000207434735,0.000276927411
-4.25,1.58643071e-06,3.11613748e-05,8.10686666e-05,0.000141423264,0.000207722458,0.000277371346
-4.3,1.59215181e-06,3.12084222e-05,8.11738681e-05,0.000141604122,0.000208005241,0.000277804557
-4.35,1.59790095e-06,3.12552573e-05,8.12781139e-05,0.00014178274,0.000208283313,0.00027822769
-4.4,1.60368226e-06,3.13019035e-05,8.13814388e-05,0.000141959203,0.000208556892,0.000278641335
-4.45,1.6095002e-06,3.13483863e-05,8.14838776e-05,0.000142133589,0.000208826179,0.000279046035
-4.5,1.61535962e-06,3.13947335e-05,8.15854653e-05,0.000142305974,0.000209091362,0.000279442286
-4.55,1.6212658e-06,3.14409755e-05,8.16862373e-05,0.00014247643,0.000209352617,0.000279830545
-4.6,1.62722441e-06,3.14871455e-05,8.17862296e-05,0.000142645025,0.00020961011,0.000280211234
-4.65,1.63324158e-06,3.15332798e-05,8.18854797e-05,0.000142811824,0.000209863996,0.000280584742
-4.7,1.63932393e-06,3.15794185e-05,8.19840265e-05,0.000142976891,0.000210114422,0.00028095143
-4.75,1.64547856e-06,3.1625605e-05,8.2081911e-05,0.000143140287,0.000210361524,0.000281311631
-4.8,1.65171307e-06,3.16718872e-05,8.21791766e-05,0.000143302069,0.000210605432,0.000281665657
-4.85,1.65803563e-06,3.17183174e-05,8.22758701e-05,0.000143462297,0.000210846269,0.000282013797
-4.9,1.66445497e-06,3.17649526e-05,8.23720415e-05,0.000143621025,0.00021108415,0.00028235632
-4.95,1.67098037e-06,3.18118551e-05,8.24677451e-05,0.00014377831,0.000211319185,0.000282693477
-5.0,1.67762175e-06,3.18590924e-05,8.25630402e-05,0.000143934207,0.000211551477,0.000283025504
-5.05,1.68438965e-06,3.19067384e-05,8.26579912e-05,0.000144088773,0.000211781127,0.000283352622
-5.1,1.69129525e-06,3.19548728e-05,8.27526688e-05,0.000144242064,0.000212008227,0.000283675036
-5.15,1.69835041e-06,3.20035821e-05,8.28471505e-05,0.00014439414,0.000212232868,0.000283992941
-5.2,1.70556768e-06,3.20529598e-05,8.29415215e-05,0.000144545061,0.000212455137,0.00028430652
-5.25,1.7129603e-06,3.21031067e-05,8.3035875e-05,0.000144694892,0.000212675117,0.000284615943
-5.3,1.72054226e-06,3.21541313e-05,8.31303138e-05,0.0001448437,0.000212892889,0.000284921372
-5.35,1.7283283e-06,3.22061504e-05,8.32249504e-05,0.000144991557,0.000213108531,0.000285222962
-5.4,1.73633391e-06,3.22592889e-05,8.33199081e-05,0.000145138541,0.000213322121,0.000285520855
-5.45,1.74457538e-06,3.23136807e-05,8.34153221e-05,0.000145284737,0.000213533735,0.00028581519
-5.5,1.7530698e-06,3.23694689e-05,8.35113401e-05,0.000145430237,0.00021374345,0.000286106095
-5.55,1.76183505e-06,3.2426806e-05,8.36081232e-05,0.000145575139,0.000213951341,0.000286393696
-5.6,1.77088989e-06,3.24858544e-05,8.37058472e-05,0.000145719555,0.000214157488,0.000286678109
-5.65,1.7802539e-06,3.25467866e-05,8.38047029e-05,0.000145863606,0.00021436197,0.000286959447
-5.7,1.78994751e-06,3.26097857e-05,8.39048975e-05,0.000146007423,0.000214564871,0.000287237819
-5.75,1.79999207e-06,3.26750456e-05,8.40066556e-05,0.000146151153,0.000214766278,0.00028751333
-5.8,1.81040977e-06,3.27427712e-05,8.41102198e-05,0.000146294956,0.000214966284,0.000287786079
-5.85,1.82122373e-06,3.28131787e-05,8.42158517e-05,0.000146439011,0.000215164989,0.000288056167
-5.9,1.83245798e-06,3.28864963e-05,8.43238332e-05,0.000146583511,0.000215362499,0.000288323691
-5.95,1.84413746e-06,3.29629639e-05,8.4434467e-05,0.000146728669,0.00021555893,0.000288588745
-6.0,1.85628807e-06,3.30428335e-05,8.45480777e-05,0.000146874721,0.000215754408,0.000288851427
-6.05,1.86893661e-06,3.31263697e-05,8.46650127e-05,0.000147021921,0.000215949073,0.000289111834
-6.1,1.88211087e-06,3.32138496e-05,8.47856431e-05,0.000147170551,0.000216143075,0.000289370064
-6.15,1.89583958e-06,3.33055633e-05,8.49103645e-05,0.000147320914,0.000216336583,0.00028962622
-6.2,1.91015244e-06,3.34018139e-05,8.50395979e-05,0.000147473343,0.00021652978,0.000289880408
-6.25,1.92508011e-06,3.35029176e-05,8.51737906e-05,0.000147628199,0.000216722871,0.00029013274
-6.3,1.94065423e-06,3.3609204e-05,8.53134168e-05,0.000147785872,0.000216916079,0.000290383335
-6.35,1.95690743e-06,3.37210165e-05,8.54589786e-05,0.000147946784,0.000217109652,0.000290632322
-6.4,1.97387331e-06,3.38387117e-05,8.56110065e-05,0.000148111392,0.000217303862,0.000290879838
-6.45,1.99158647e-06,3.39626605e-05,8.57700604e-05,0.000148280185,0.000217499008,0.000291126033
-6.5,2.01008249e-06,3.40932473e-05,8.59367302e-05,0.000148453693,0.000217695421,0.000291371073
-6.55,2.02939795e-06,3.42308706e-05,8.6111636e-05,0.000148632479,0.00021789346,0.000291615136
-6.6,2.04957041e-06,3.43759431e-05,8.62954296e-05,0.00014881715,0.00021809352,0.000291858424
