vds,vb1,vb2,vb3,vb4,vb5,vb6
0.0,0.0,0.0,0.0,0.0,0.0,0.0
-0.05,1.30663068e-07,8.66106282e-07,1.459427e-06,1.95532621e-06,2.38141705e-06,2.75555767e-06
-0.1,2.19524321e-07,1.67934358e-06,2.86594791e-06,3.85893273e-06,4.71269443e-06,5.46266863e-06
-0.15,2.7007064e-07,2.44045355e-06,4.22019686e-06,5.7113635e-06,6.99430174e-06,8.12174147e-06
-0.2,2.92213513e-07,3.15016657e-06,5.52279815e-06,7.5131549e-06,9.22670275e-06,1.07331802e-05
-0.25,3.01349201e-07,3.80920304e-06,6.77436647e-06,9.26483595e-06,1.14103555e-05,1.32973844e-05
-0.3,3.06671923e-07,4.41827535e-06,7.97550719e-06,1.09669284e-05,1.35457125e-05,1.58147491e-05
-0.35,3.10866651e-07,4.97809065e-06,9.1268166e-06,1.26199469e-05,1.56332204e-05,1.82856651e-05
-0.4,3.14614709e-07,5.48935545e-06,1.02288822e-05,1.4224399e-05,1.76733209e-05,2.07105186e-05
-0.45,3.18124995e-07,5.9527831e-06,1.12822832e-05,1.57807856e-05,1.96664498e-05,2.30896918e-05
-0.5,3.21478363e-07,6.36910687e-06,1.22875905e-05,1.72896009e-05,2.16130379e-05,2.54235628e-05
-0.55,3.24713255e-07,6.73910391e-06,1.32453674e-05,1.87513323e-05,2.35135108e-05,2.77125051e-05
-0.6,3.2785134e-07,7.06364083e-06,1.41561703e-05,2.0166461e-05,2.5368289e-05,2.99568886e-05
-0.65,3.30906598e-07,7.3437637e-06,1.50205487e-05,2.15354618e-05,2.71777878e-05,3.2157079e-05
-0.7,3.33888996e-07,7.58087906e-06,1.58390468e-05,2.28588037e-05,2.89424178e-05,3.43134379e-05
-0.75,3.36806175e-07,7.77710703e-06,1.66122041e-05,2.41369494e-05,3.06625844e-05,3.64263232e-05
-0.8,3.3966429e-07,7.9358833e-06,1.73405568e-05,2.5370356e-05,3.23386887e-05,3.84960887e-05
-0.85,3.4246848e-07,8.06263458e-06,1.80246407e-05,2.65594753e-05,3.39711268e-05,4.05230848e-05
-0.9,3.45223136e-07,8.16470816e-06,1.86649936e-05,2.77047533e-05,3.55602903e-05,4.25076577e-05
-0.95,3.47932083e-07,8.24978827e-06,1.92621605e-05,2.88066315e-05,3.71065662e-05,4.44501502e-05
-1.0,3.50598689e-07,8.32392562e-06,1.98167011e-05,2.98655462e-05,3.86103374e-05,4.63509015e-05
-1.05,3.53225956e-07,8.39094312e-06,2.0329202e-05,3.08819296e-05,4.00719822e-05,4.8210247e-05
-1.1,3.55816573e-07,8.45300805e-06,2.08002959e-05,3.185621e-05,4.1491875e-05,5.00285189e-05
-1.15,3.58372968e-07,8.5113419e-06,2.12306957e-05,3.27888121e-05,4.2870386e-05,5.18060458e-05
-1.2,3.60897345e-07,8.56667364e-06,2.16212499e-05,3.36801584e-05,4.42078814e-05,5.35431528e-05
-1.25,3.63391711e-07,8.61947521e-06,2.19730384e-05,3.45306693e-05,4.55047238e-05,5.52401619e-05
-1.3,3.65857901e-07,8.67007774e-06,2.22875273e-05,3.53407652e-05,4.67612719e-05,5.68973917e-05
-1.35,3.682976e-07,8.71872962e-06,2.25667974e-05,3.6110868e-05,4.79778813e-05,5.85151578e-05
-1.4,3.70712357e-07,8.76562695e-06,2.28138076e-05,3.68414037e-05,4.91549039e-05,6.00937724e-05
-1.45,3.73103602e-07,8.8109305e-06,2.3032529e-05,3.75328061e-05,5.0292689e-05,6.16335449e-05
-1.5,3.75472657e-07,8.85477563e-06,2.32276952e-05,3.81855224e-05,5.13915829e-05,6.31347817e-05
-1.55,3.77820747e-07,8.89727861e-06,2.34041123e-05,3.88000214e-05,5.24519295e-05,6.45977861e-05
-1.6,3.80149011e-07,8.93854075e-06,2.35659221e-05,3.93768061e-05,5.34740708e-05,6.60228591e-05
-1.65,3.82458508e-07,8.97865132e-06,2.37162658e-05,3.99164334e-05,5.44583473e-05,6.74102985e-05
-1.7,3.84750224e-07,9.01768965e-06,2.38573663e-05,4.04195438e-05,5.54050989e-05,6.87603997e-05
-1.75,3.87025081e-07,9.05572674e-06,2.39907753e-05,4.08869089e-05,5.63146655e-05,7.00734558e-05
-1.8,3.89283942e-07,9.09282653e-06,2.41176035e-05,4.13195011e-05,5.71873884e-05,7.13497575e-05
-1.85,3.91527613e-07,9.12904682e-06,2.42386783e-05,4.17185934e-05,5.8023612e-05,7.25895932e-05
-1.9,3.93756852e-07,9.16444013e-06,2.43546425e-05,4.20858809e-05,5.88236857e-05,7.37932495e-05
-1.95,3.9597237e-07,9.19905435e-06,2.44660137e-05,4.24235892e-05,5.95879675e-05,7.49610112e-05
-2.0,3.98174835e-07,9.23293328e-06,2.4573221e-05,4.27344922e-05,6.03168282e-05,7.60931616e-05
-2.05,4.00364879e-07,9.26611711e-06,2.46766274e-05,4.30217582e-05,6.10106575e-05,7.7189983e-05
-2.1,4.02543093e-07,9.29864282e-06,2.47765454e-05,4.32886346e-05,6.16698736e-05,7.82517569e-05
-2.15,4.04710038e-07,9.33054449e-06,2.48732473e-05,4.35381116e-05,6.22949362e-05,7.92787646e-05
-2.2,4.06866245e-07,9.36185366e-06,2.49669727e-05,4.37727224e-05,6.28863661e-05,8.02712879e-05
-2.25,4.09012212e-07,9.39259953e-06,2.50579342e-05,4.39945107e-05,6.34447736e-05,8.12296097e-05
-2.3,4.11148415e-07,9.4228092e-06,2.51463215e-05,4.42051005e-05,6.39708972e-05,8.21540157e-05
-2.35,4.13275301e-07,9.4525079e-06,2.5232305e-05,4.44057902e-05,6.44656561e-05,8.30447952e-05
-2.4,4.15393298e-07,9.48171911e-06,2.53160384e-05,4.45976362e-05,6.4930211e-05,8.39022435e-05
-2.45,4.1750281e-07,9.51046476e-06,2.53976609e-05,4.47815148e-05,6.53660204e-05,8.47266644e-05
-2.5,4.19604221e-07,9.53876534e-06,2.54772988e-05,4.49581653e-05,6.57748649e-05,8.55183737e-05
-2.55,4.21697898e-07,9.56664003e-06,2.55550678e-05,4.51282208e-05,6.61588068e-05,8.62777042e-05
-2.6,4.23784188e-07,9.59410684e-06,2.56310733e-05,4.52922303e-05,6.65200753e-05,8.70050128e-05
-2.65,4.25863425e-07,9.62118264e-06,2.57054121e-05,4.54506738e-05,6.68609098e-05,8.77006895e-05
-2.7,4.27935926e-07,9.64788332e-06,2.57781734e-05,4.56039749e-05,6.71834214e-05,8.83651701e-05
-2.75,4.30001993e-07,9.67422381e-06,2.58494393e-05,4.57525093e-05,6.74895108e-05,8.89989542e-05
-2.8,4.32061919e-07,9.70021821e-06,2.59192857e-05,4.58966126e-05,6.77808461e-05,8.96026271e-05
-2.85,4.34115982e-07,9.7258798e-06,2.59877829e-05,4.60365858e-05,6.80588748e-05,9.01768876e-05
-2.9,4.36164451e-07,9.75122113e-06,2.60549961e-05,4.61727e-05,6.83248518e-05,9.07225782e-05
-2.95,4.38207585e-07,9.77625408e-06,2.61209859e-05,4.63052004e-05,6.85798676e-05,9.12407126e-05
-3.0,4.40245635e-07,9.80098987e-06,2.61858088e-05,4.64343096e-05,6.88248751e-05,9.17324896e-05
-3.05,4.42278846e-07,9.82543916e-06,2.62495174e-05,4.656023e-05,6.90607104e-05,9.21992845e-05
-3.1,4.44307455e-07,9.84961205e-06,2.6312161e-05,4.66831468e-05,6.92881114e-05,9.26426126e-05
-3.15,4.46331697e-07,9.87351811e-06,2.63737856e-05,4.68032293e-05,6.9507732e-05,9.30640711e-05
-3.2,4.48351803e-07,9.89716647e-06,2.64344342e-05,4.69206331e-05,6.97201545e-05,9.34652759e-05
-3.25,4.50368002e-07,9.92056579e-06,2.64941475e-05,4.70355012e-05,6.99258989e-05,9.3847805e-05
-3.3,4.52380526e-07,9.94372435e-06,2.65529634e-05,4.71479657e-05,7.01254322e-05,9.42131588e-05
-3.35,4.54389606e-07,9.96665001e-06,2.66109177e-05,4.72581486e-05,7.03191745e-05,9.45627353e-05
-3.4,4.56395482e-07,9.98935031e-06,2.66680442e-05,4.73661629e-05,7.05075055e-05,9.48978195e-05
-3.45,4.58398395e-07,1.00118324e-05,2.67243746e-05,4.74721135e-05,7.0690769e-05,9.52195808e-05
-3.5,4.60398601e-07,1.00341033e-05,2.6779939e-05,4.75760978e-05,7.08692777e-05,9.55290777e-05
-3.55,4.62396363e-07,1.00561695e-05,2.68347657e-05,4.76782067e-05,7.10433165e-05,9.58272646e-05
-3.6,4.6439196e-07,1.00780374e-05,2.68888815e-05,4.77785248e-05,7.12131456e-05,9.61150012e-05
-3.65,4.6638569e-07,1.00997132e-05,2.69423119e-05,4.78771313e-05,7.13790035e-05,9.63930614e-05
-3.7,4.68377869e-07,1.01212029e-05,2.69950811e-05,4.79741002e-05,7.15411093e-05,9.66621425e-05
-3.75,4.7036884e-07,1.01425122e-05,2.70472118e-05,4.80695008e-05,7.16996644e-05,9.69228736e-05
-3.8,4.72358971e-07,1.01636467e-05,2.70987259e-05,4.81633984e-05,7.18548548e-05,9.71758234e-05
-3.85,4.74348665e-07,1.01846122e-05,2.71496441e-05,4.8255854e-05,7.20068522e-05,9.74215067e-05
-3.9,4.76338357e-07,1.02054139e-05,2.71999859e-05,4.83469251e-05,7.21558157e-05,9.76603911e-05
-3.95,4.78328525e-07,1.02260575e-05,2.72497703e-05,4.8436666e-05,7.23018931e-05,9.78929017e-05
-4.0,4.80319691e-07,1.02465483e-05,2.72990152e-05,4.85251278e-05,7.24452213e-05,9.8119426e-05
-4.05,4.82312426e-07,1.02668919e-05,2.73477377e-05,4.86123587e-05,7.25859283e-05,9.83403183e-05
-4.1,4.84307356e-07,1.02870938e-05,2.73959544e-05,4.86984042e-05,7.2724133e-05,9.85559029e-05
-4.15,4.86305167e-07,1.03071598e-05,2.74436809e-05,4.87833076e-05,7.28599468e-05,9.87664776e-05
-4.2,4.88306608e-07,1.0327096e-05,2.74909327e-05,4.88671097e-05,7.29934736e-05,9.89723161e-05
-4.25,4.90312503e-07,1.03469083e-05,2.75377244e-05,4.89498492e-05,7.3124811e-05,9.91736708e-05
-4.3,4.92323747e-07,1.03666034e-05,2.75840702e-05,4.90315629e-05,7.32540504e-05,9.93707748e-05
-4.35,4.94341322e-07,1.03861882e-05,2.76299842e-05,4.91122857e-05,7.33812776e-05,9.95638436e-05
-4.4,4.96366295e-07,1.04056699e-05,2.76754799e-05,4.91920509e-05,7.35065734e-05,9.9753077e-05
-4.45,4.98399829e-07,1.04250563e-05,2.77205708e-05,4.92708901e-05,7.36300139e-05,9.99386606e-05
-4.5,5.00443188e-07,1.0444356e-05,2.77652702e-05,4.93488335e-05,7.37516707e-05,0.000100120767
-4.55,5.02497743e-07,1.0463578e-05,2.78095915e-05,4.94259099e-05,7.38716114e-05,0.000100299557
-4.6,5.0456498e-07,1.04827322e-05,2.78535479e-05,4.95021471e-05,7.39899e-05,0.00010047518
-4.65,5.06646502e-07,1.05018292e-05,2.78971531e-05,4.95775713e-05,7.41065969e-05,0.000100647777
-4.7,5.08744042e-07,1.05208807e-05,2.7940421e-05,4.96522082e-05,7.42217593e-05,0.000100817479
-4.75,5.10859466e-07,1.05398993e-05,2.7983366e-05,4.97260823e-05,7.43354415e-05,0.000100984408
-4.8,5.12994781e-07,1.05588987e-05,2.80260029e-05,4.97992173e-05,7.44476949e-05,0.000101148681
-4.85,5.15152141e-07,1.05778941e-05,2.80683476e-05,4.98716363e-05,7.45585685e-05,0.000101310405
-4.9,5.17333853e-07,1.05969016e-05,2.81104164e-05,4.99433619e-05,7.46681086e-05,0.000101469682
-4.95,5.19542386e-07,1.06159391e-05,2.81522271e-05,5.00144162e-05,7.47763597e-05,0.000101626608
-5.0,5.21780376e-07,1.06350259e-05,2.81937986e-05,5.00848212e-05,7.48833638e-05,0.000101781275
-5.05,5.24050633e-07,1.06541829e-05,2.82351512e-05,5.01545985e-05,7.49891614e-05,0.000101933766
-5.1,5.26356147e-07,1.06734328e-05,2.82763068e-05,5.02237701e-05,7.50937909e-05,0.000102084164
-5.15,5.28700099e-07,1.06928003e-05,2.83172893e-05,5.02923579e-05,7.51972893e-05,0.000102232544
-5.2,5.31085858e-07,1.07123118e-05,2.83581246e-05,5.03603847e-05,7.52996921e-05,0.000102378979
-5.25,5.33516998e-07,1.07319963e-05,2.83988409e-05,5.04278735e-05,7.54010337e-05,0.000102523537
-5.3,5.35997296e-07,1.07518844e-05,2.84394689e-05,5.04948484e-05,7.55013472e-05,0.000102666283
-5.35,5.38530745e-07,1.07720096e-05,2.84800423e-05,5.05613346e-05,7.56006647e-05,0.00010280728
-5.4,5.41121553e-07,1.07924075e-05,2.85205975e-05,5.06273588e-05,7.56990176e-05,0.000102946585
-5.45,5.43774156e-07,1.08131165e-05,2.85611745e-05,5.06929492e-05,7.57964369e-05,0.000103084256
-5.5,5.46493216e-07,1.08341774e-05,2.8601817e-05,5.07581361e-05,7.58929529e-05,0.000103220345
-5.55,5.49283633e-07,1.08556341e-05,2.86425722e-05,5.08229521e-05,7.5988596e-05,0.000103354903
-5.6,5.5215055e-07,1.08775332e-05,2.86834919e-05,5.08874325e-05,7.60833967e-05,0.00010348798
-5.65,5.55099352e-07,1.08999245e-05,2.87246319e-05,5.09516155e-05,7.61773857e-05,0.000103619621
-5.7,5.58135678e-07,1.09228607e-05,2.87660532e-05,5.10155427e-05,7.62705944e-05,0.000103749873
-5.75,5.61265423e-07,1.09463978e-05,2.88078214e-05,5.10792595e-05,7.63630552e-05,0.000103878778
-5.8,5.64494743e-07,1.09705953e-05,2.88500079e-05,5.11428155e-05,7.64548017e-05,0.000104006379
-5.85,5.67830058e-07,1.0995516e-05,2.88926895e-05,5.12062651e-05,7.65458692e-05,0.000104132716
-5.9,5.71278059e-07,1.10212261e-05,2.89359488e-05,5.12696674e-05,7.6636295e-05,0.00010425783
-5.95,5.74845709e-07,1.10477956e-05,2.8979875e-05,5.13330874e-05,7.67261188e-05,0.000104381759
-6.0,5.78540249e-07,1.10752981e-05,2.90245636e-05,5.13965958e-05,7.68153831e-05,0.000104504543
-6.05,5.82369203e-07,1.11038111e-05,2.90701169e-05,5.14602701e-05,7.6904134e-05,0.00010462622
-6.1,5.86340377e-07,1.1133416e-05,2.91166446e-05,5.15241945e-05,7.6992421e-05,0.00010474683
-6.15,5.90461865e-07,1.11641978e-05,2.91642637e-05,5.15884609e-05,7.70802985e-05,0.000104866411
-6.2,5.94742053e-07,1.1196246e-05,2.92130987e-05,5.16531691e-05,7.71678253e-05,0.000104985005
-6.25,5.99189619e-07,1.12296539e-05,2.92632824e-05,5.17184274e-05,7.72550661e-05,0.000105102653
-6.3,6.03813538e-07,1.12645191e-05,2.93149558e-05,5.17843534e-05,7.73420915e-05,0.000105219399
-6.35,6.08623083e-07,1.13009433e-05,2.93682683e-05,5.18510741e-05,7.74289788e-05,0.000105335289
-6.4,6.13627828e-07,1.13390326e-05,2.94233781e-05,5.19187265e-05,7.7515813e-05,0.000105450371
-6.45,6.18837648e-07,1.13788972e-05,2.94804527e-05,5.19874584e-05,7.76026867e-05,0.000105564698
-6.5,6.24262724e-07,1.1420652e-05,2.95396685e-05,5.20574289e-05,7.76897018e-05,0.000105678325
-6.55,6.2991354e-07,1.14644161e-05,2.96012118e-05,5.21288086e-05,7.77769694e-05,0.000105791313
-6.6,6.35800891e-07,1.15103131e-05,2.96652783e-05,5.22017805e-05,7.78646108e-05,0.000105903728
