vds,vb1,vb2,vb3,vb4,vb5,vb6
0.0,0.0,0.0,0.0,0.0,0.0,0.0
-0.05,6.06783272e-08,4.38385988e-07,7.56386488e-07,1.02896342e-06,1.26750778e-06,1.47980291e-06
-0.1,9.95514386e-08,8.50257398e-07,1.48711346e-06,2.03337187e-06,2.51155352e-06,2.93717148e-06
-0.15,1.19040844e-07,1.23577278e-06,2.19231205e-06,3.01333673e-06,3.7322331e-06,4.37218914e-06
-0.2,1.25994056e-07,1.59509078e-06,2.87211258e-06,3.96896875e-06,4.9296419e-06,5.78493896e-06
-0.25,1.28373756e-07,1.92837076e-06,3.52664466e-06,4.90037801e-06,6.10387479e-06,7.17550356e-06
-0.3,1.2956463e-07,2.23577374e-06,4.15603716e-06,5.80767401e-06,7.25502612e-06,8.54396517e-06
-0.35,1.30394448e-07,2.51746398e-06,4.7604183e-06,6.69096558e-06,8.38318977e-06,9.89040563e-06
-0.4,1.31074592e-07,2.77361157e-06,5.33991569e-06,7.55036099e-06,9.48845912e-06,1.12149064e-05
-0.45,1.31673864e-07,3.00439692e-06,5.89465642e-06,8.38596791e-06,1.05709271e-05,1.25175485e-05
-0.5,1.32220448e-07,3.21001886e-06,6.42476711e-06,9.19789341e-06,1.1630686e-05,1.37984125e-05
-0.55,1.32728278e-07,3.39070984e-06,6.93037408e-06,9.98624401e-06,1.26678279e-05,1.50575789e-05
-0.6,1.33205353e-07,3.54676556e-06,7.41160347e-06,1.07511257e-05,1.36824442e-05,1.62951274e-05
-0.65,1.33656827e-07,3.67860483e-06,7.86858149e-06,1.14926439e-05,1.46746259e-05,1.75111376e-05
-0.7,1.34086321e-07,3.78689144e-06,8.30143469e-06,1.22109036e-05,1.56444635e-05,1.87056886e-05
-0.75,1.34496548e-07,3.87277275e-06,8.71029042e-06,1.29060092e-05,1.65920473e-05,1.98788592e-05
-0.8,1.34889635e-07,3.93827372e-06,9.09527735e-06,1.35780648e-05,1.75174667e-05,2.10307277e-05
-0.85,1.35267311e-07,3.98668297e-06,9.45652645e-06,1.4227174e-05,1.84208112e-05,2.21613723e-05
-0.9,1.35631011e-07,4.02236046e-06,9.79417218e-06,1.485344e-05,1.93021694e-05,2.32708705e-05
-0.95,1.35981955e-07,4.04964596e-06,1.01083545e-05,1.54569659e-05,2.01616297e-05,2.43592997e-05
-1.0,1.36321193e-07,4.07178046e-06,1.0399222e-05,1.60378544e-05,2.09992803e-05,2.54267368e-05
-1.05,1.36649639e-07,4.09073402e-06,1.06669365e-05,1.65962081e-05,2.18152086e-05,2.64732586e-05
-1.1,1.36968096e-07,4.1075986e-06,1.09116811e-05,1.71321296e-05,2.26095019e-05,2.74989411e-05
-1.15,1.37277276e-07,4.12297978e-06,1.11336733e-05,1.76457218e-05,2.33822471e-05,2.85038605e-05
-1.2,1.37577813e-07,4.13723159e-06,1.13331871e-05,1.81370878e-05,2.41335307e-05,2.94880922e-05
-1.25,1.37870275e-07,4.15057653e-06,1.15105905e-05,1.86063315e-05,2.48634391e-05,3.04517116e-05
-1.3,1.38155177e-07,4.16316489e-06,1.166641e-05,1.90535576e-05,2.55720581e-05,3.13947936e-05
-1.35,1.38432982e-07,4.17510473e-06,1.18014338e-05,1.94788726e-05,2.62594734e-05,3.23174129e-05
-1.4,1.38704111e-07,4.18647785e-06,1.19168621e-05,1.98823851e-05,2.69257707e-05,3.32196438e-05
-1.45,1.38968949e-07,4.1973486e-06,1.20144714e-05,2.0264207e-05,2.75710352e-05,3.41015605e-05
-1.5,1.39227848e-07,4.20776921e-06,1.20966825e-05,2.06244552e-05,2.81953522e-05,3.49632366e-05
-1.55,1.39481129e-07,4.21778306e-06,1.21663728e-05,2.09632531e-05,2.87988069e-05,3.58047457e-05
-1.6,1.39729091e-07,4.22742684e-06,1.222643e-05,2.12807343e-05,2.93814846e-05,3.66261611e-05
-1.65,1.39972006e-07,4.23673202e-06,1.22793076e-05,2.15770474e-05,2.9943471e-05,3.74275558e-05
-1.7,1.40210127e-07,4.24572591e-06,1.23268373e-05,2.18523629e-05,3.04848517e-05,3.82090025e-05
-1.75,1.40443689e-07,4.25443246e-06,1.23702893e-05,2.21068846e-05,3.10057132e-05,3.89705739e-05
-1.8,1.40672908e-07,4.26287277e-06,1.24105254e-05,2.23408676e-05,3.15061427e-05,3.97123423e-05
-1.85,1.40897988e-07,4.27106563e-06,1.24481392e-05,2.25546451e-05,3.19862286e-05,4.04343801e-05
-1.9,1.41119115e-07,4.27902783e-06,1.24835531e-05,2.27486704e-05,3.24460605e-05,4.11367594e-05
-1.95,1.41336467e-07,4.28677444e-06,1.25170798e-05,2.29235775e-05,3.28857307e-05,4.18195524e-05
-2.0,1.41550206e-07,4.2943191e-06,1.25489595e-05,2.30802593e-05,3.33053342e-05,4.24828309e-05
-2.05,1.41760488e-07,4.30167412e-06,1.25793824e-05,2.32199489e-05,3.370497e-05,4.31266673e-05
-2.1,1.41967455e-07,4.30885074e-06,1.26085034e-05,2.33442607e-05,3.40847429e-05,4.37511336e-05
-2.15,1.42171244e-07,4.31585918e-06,1.2636451e-05,2.34551346e-05,3.44447655e-05,4.43563024e-05
-2.2,1.42371981e-07,4.32270881e-06,1.26633339e-05,2.35546573e-05,3.47851616e-05,4.49422463e-05
-2.25,1.42569787e-07,4.32940825e-06,1.26892452e-05,2.3644826e-05,3.51060702e-05,4.55090385e-05
-2.3,1.42764774e-07,4.33596539e-06,1.27142653e-05,2.37273643e-05,3.5407653e-05,4.60567529e-05
-2.35,1.42957049e-07,4.34238755e-06,1.27384648e-05,2.38036537e-05,3.56901036e-05,4.65854642e-05
-2.4,1.43146712e-07,4.34868145e-06,1.27619055e-05,2.38747582e-05,3.59536619e-05,4.70952481e-05
-2.45,1.43333859e-07,4.35485337e-06,1.27846426e-05,2.39414882e-05,3.61986356e-05,4.75861821e-05
-2.5,1.4351858e-07,4.3609091e-06,1.28067249e-05,2.40044661e-05,3.64254286e-05,4.80583455e-05
-2.55,1.43700961e-07,4.36685404e-06,1.28281966e-05,2.40641782e-05,3.66345807e-05,4.85118204e-05
-2.6,1.43881082e-07,4.37269322e-06,1.28490971e-05,2.4121013e-05,3.6826813e-05,4.89466925e-05
-2.65,1.44059021e-07,4.37843133e-06,1.28694622e-05,2.4175287e-05,3.70030707e-05,4.9363052e-05
-2.7,1.44234853e-07,4.38407276e-06,1.28893245e-05,2.42272627e-05,3.71645426e-05,4.97609955e-05
-2.75,1.44408647e-07,4.38962162e-06,1.29087134e-05,2.42771613e-05,3.7312631e-05,5.01406283e-05
-2.8,1.44580472e-07,4.39508176e-06,1.29276561e-05,2.43251714e-05,3.74488645e-05,5.0502067e-05
-2.85,1.44750392e-07,4.4004568e-06,1.29461772e-05,2.43714559e-05,3.7574773e-05,5.08454443e-05
-2.9,1.44918469e-07,4.40575013e-06,1.29642994e-05,2.44161564e-05,3.76917743e-05,5.11709145e-05
-2.95,1.45084765e-07,4.41096496e-06,1.29820438e-05,2.44593972e-05,3.78011053e-05,5.14786621e-05
-3.0,1.45249339e-07,4.41610431e-06,1.29994296e-05,2.45012883e-05,3.79038048e-05,5.17689137e-05
-3.05,1.45412249e-07,4.42117102e-06,1.30164747e-05,2.45419272e-05,3.80007287e-05,5.20419532e-05
-3.1,1.45573552e-07,4.42616778e-06,1.30331956e-05,2.4581401e-05,3.80925802e-05,5.22981434e-05
-3.15,1.45733305e-07,4.43109714e-06,1.30496078e-05,2.46197881e-05,3.81799392e-05,5.25379509e-05
-3.2,1.45891565e-07,4.43596151e-06,1.30657255e-05,2.4657159e-05,3.8263289e-05,5.27619735e-05
-3.25,1.4604839e-07,4.44076318e-06,1.3081562e-05,2.46935775e-05,3.8343036e-05,5.29709629e-05
-3.3,1.46203839e-07,4.44550433e-06,1.30971299e-05,2.47291014e-05,3.84195262e-05,5.31658324e-05
-3.35,1.46357973e-07,4.45018703e-06,1.31124408e-05,2.47637837e-05,3.84930565e-05,5.33476374e-05
-3.4,1.46510854e-07,4.45481326e-06,1.31275055e-05,2.47976724e-05,3.8563884e-05,5.35175276e-05
-3.45,1.4666255e-07,4.45938491e-06,1.31423343e-05,2.48308117e-05,3.86322332e-05,5.36766789e-05
-3.5,1.46813132e-07,4.46390379e-06,1.31569367e-05,2.48632423e-05,3.86983012e-05,5.3826227e-05
-3.55,1.46962674e-07,4.46837166e-06,1.31713219e-05,2.48950015e-05,3.87622624e-05,5.3967219e-05
-3.6,1.47111258e-07,4.47279021e-06,1.31854983e-05,2.49261237e-05,3.88242715e-05,5.41005887e-05
-3.65,1.47258971e-07,4.47716107e-06,1.31994739e-05,2.49566408e-05,3.88844669e-05,5.42271531e-05
-3.7,1.47405909e-07,4.48148586e-06,1.32132563e-05,2.49865823e-05,3.89429726e-05,5.43476199e-05
-3.75,1.47552176e-07,4.48576617e-06,1.32268527e-05,2.50159758e-05,3.89999003e-05,5.44626e-05
-3.8,1.47697885e-07,4.49000354e-06,1.32402698e-05,2.50448467e-05,3.90553509e-05,5.45726221e-05
-3.85,1.4784316e-07,4.49419957e-06,1.32535139e-05,2.50732189e-05,3.9109416e-05,5.46781445e-05
-3.9,1.4798814e-07,4.49835583e-06,1.32665913e-05,2.51011144e-05,3.91621789e-05,5.47795667e-05
-3.95,1.48132972e-07,4.50247395e-06,1.32795077e-05,2.5128554e-05,3.92137155e-05,5.48772387e-05
-4.0,1.48277824e-07,4.50655558e-06,1.32922686e-05,2.51555573e-05,3.92640956e-05,5.49714682e-05
-4.05,1.48422874e-07,4.51060245e-06,1.33048793e-05,2.51821423e-05,3.93133827e-05,5.50625272e-05
-4.1,1.48568321e-07,4.5146164e-06,1.33173448e-05,2.52083262e-05,3.93616357e-05,5.51506571e-05
-4.15,1.48714381e-07,4.51859933e-06,1.33296699e-05,2.52341251e-05,3.94089087e-05,5.52360734e-05
-4.2,1.48861293e-07,4.52255332e-06,1.33418594e-05,2.52595541e-05,3.94552514e-05,5.53189687e-05
-4.25,1.49009314e-07,4.52648058e-06,1.33539178e-05,2.52846275e-05,3.95007104e-05,5.53995161e-05
-4.3,1.49158727e-07,4.53038352e-06,1.33658495e-05,2.53093587e-05,3.95453283e-05,5.54778717e-05
-4.35,1.49309839e-07,4.53426474e-06,1.33776587e-05,2.53337604e-05,3.95891451e-05,5.55541768e-05
-4.4,1.49462982e-07,4.5381271e-06,1.33893499e-05,2.53578447e-05,3.96321978e-05,5.56285593e-05
-4.45,1.49618518e-07,4.54197373e-06,1.34009271e-05,2.5381623e-05,3.96745212e-05,5.57011358e-05
-4.5,1.49776836e-07,4.54580808e-06,1.34123948e-05,2.54051061e-05,3.97161473e-05,5.57720128e-05
-4.55,1.49938358e-07,4.54963393e-06,1.34237573e-05,2.54283042e-05,3.97571066e-05,5.58412876e-05
-4.6,1.50103538e-07,4.55345544e-06,1.34350189e-05,2.54512273e-05,3.97974272e-05,5.59090493e-05
-4.65,1.50272864e-07,4.55727721e-06,1.34461844e-05,2.54738846e-05,3.98371357e-05,5.59753801e-05
-4.7,1.50446857e-07,4.56110426e-06,1.34572586e-05,2.54962851e-05,3.9876257e-05,5.60403557e-05
-4.75,1.50626079e-07,4.56494215e-06,1.34682465e-05,2.55184373e-05,3.99148146e-05,5.61040457e-05
-4.8,1.50811129e-07,4.56879696e-06,1.34791536e-05,2.55403497e-05,3.99528305e-05,5.61665148e-05
-4.85,1.51002644e-07,4.57267537e-06,1.34899858e-05,2.556203e-05,3.99903256e-05,5.62278229e-05
-4.9,1.51201305e-07,4.57658466e-06,1.35007494e-05,2.55834863e-05,4.00273195e-05,5.62880255e-05
-4.95,1.51407834e-07,4.58053283e-06,1.35114512e-05,2.56047261e-05,4.00638308e-05,5.63471745e-05
-5.0,1.51622999e-07,4.58452856e-06,1.3522099e-05,2.5625757e-05,4.0099877e-05,5.6405318e-05
-5.05,1.5184761e-07,4.58858131e-06,1.35327008e-05,2.56465865e-05,4.01354749e-05,5.64625011e-05
-5.1,1.52082528e-07,4.59270137e-06,1.35432659e-05,2.56672222e-05,4.01706401e-05,5.65187657e-05
-5.15,1.52328657e-07,4.59689987e-06,1.35538043e-05,2.56876717e-05,4.02053878e-05,5.65741513e-05
-5.2,1.52586954e-07,4.60118885e-06,1.3564327e-05,2.5707943e-05,4.02397323e-05,5.66286947e-05
-5.25,1.52858423e-07,4.6055813e-06,1.35748464e-05,2.5728044e-05,4.02736872e-05,5.66824306e-05
-5.3,1.53144123e-07,4.61009124e-06,1.35853758e-05,2.57479835e-05,4.03072657e-05,5.67353917e-05
-5.35,1.5344516e-07,4.61473369e-06,1.35959301e-05,2.57677704e-05,4.03404803e-05,5.67876084e-05
-5.4,1.53762696e-07,4.61952481e-06,1.36065257e-05,2.57874144e-05,4.03733431e-05,5.68391098e-05
-5.45,1.54097947e-07,4.62448186e-06,1.36171805e-05,2.58069258e-05,4.0405866e-05,5.6889923e-05
-5.5,1.54452183e-07,4.6296233e-06,1.36279144e-05,2.58263159e-05,4.04380603e-05,5.69400738e-05
-5.55,1.54826728e-07,4.63496881e-06,1.36387488e-05,2.58455971e-05,4.04699373e-05,5.69895866e-05
-5.6,1.55222964e-07,4.64053935e-06,1.36497075e-05,2.58647826e-05,4.05015082e-05,5.70384843e-05
-5.65,1.55642329e-07,4.64635717e-06,1.36608161e-05,2.58838875e-05,4.05327839e-05,5.70867889e-05
-5.7,1.56086317e-07,4.6524459e-06,1.36721029e-05,2.59029278e-05,4.05637758e-05,5.71345211e-05
-5.75,1.56556482e-07,4.65883051e-06,1.36835982e-05,2.59219218e-05,4.05944951e-05,5.71817007e-05
-5.8,1.57054433e-07,4.66553745e-06,1.36953351e-05,2.59408892e-05,4.06249534e-05,5.72283465e-05
-5.85,1.57581839e-07,4.67259459e-06,1.37073494e-05,2.59598521e-05,4.06551631e-05,5.72744765e-05
-5.9,1.58140427e-07,4.68003131e-06,1.37196797e-05,2.59788349e-05,4.06851367e-05,5.7320108e-05
-5.95,1.58731983e-07,4.68787853e-06,1.37323675e-05,2.59978643e-05,4.07148879e-05,5.73652575e-05
-6.0,1.59358352e-07,4.6961687e-06,1.37454576e-05,2.60169702e-05,4.07444311e-05,5.74099411e-05
-6.05,1.60021438e-07,4.70493588e-06,1.37589979e-05,2.60361849e-05,4.07737821e-05,5.74541744e-05
-6.1,1.60723204e-07,4.71421574e-06,1.37730397e-05,2.60555445e-05,4.08029577e-05,5.74979725e-05
-6.15,1.6146567e-07,4.72404559e-06,1.3787638e-05,2.60750883e-05,4.08319767e-05,5.75413504e-05
-6.2,1.62250918e-07,4.73446438e-06,1.38028512e-05,2.60948594e-05,4.08608595e-05,5.75843228e-05
-6.25,1.63081086e-07,4.74551278e-06,1.38187415e-05,2.61149049e-05,4.08896287e-05,5.76269047e-05
-6.3,1.63958372e-07,4.75723313e-06,1.38353752e-05,2.6135276e-05,4.09183092e-05,5.76691111e-05
-6.35,1.64885031e-07,4.76966951e-06,1.38528224e-05,2.61560287e-05,4.09469285e-05,5.77109571e-05
-6.4,1.65863375e-07,4.78286771e-06,1.38711575e-05,2.61772237e-05,4.09755173e-05,5.77524587e-05
-6.45,1.66895776e-07,4.79687531e-06,1.38904589e-05,2.61989265e-05,4.10041093e-05,5.77936323e-05
-6.5,1.67984661e-07,4.81174159e-06,1.39108095e-05,2.62212083e-05,4.10327421e-05,5.78344954e-05
-6.55,1.69132512e-07,4.82751765e-06,1.39322967e-05,2.62441454e-05,4.10614569e-05,5.78750665e-05
-6.6,1.70341869e-07,4.84425632e-06,1.39550123e-05,2.62678205e-05,4.10902996e-05,5.79153656e-05
