vds,vb1,vb2,vb3,vb4,vb5,vb6
0.0,0.0,0.0,0.0,0.0,0.0,0.0
-0.05,3.51384067e-06,2.78817322e-05,4.58256766e-05,5.96565569e-05,7.06943247e-05,7.97370215e-05
-0.1,5.69589296e-06,5.40411596e-05,8.99841547e-05,0.000117725501,0.000139881797,0.000158043585
-0.15,6.74092551e-06,7.85024104e-05,0.000132495747,0.000174224169,0.0002075774,0.000234932787
-0.2,7.12376662e-06,0.000101289247,0.000173380444,0.000229169647,0.000273795917,0.000310417561
-0.25,7.29250857e-06,0.000122425111,0.000212657923,0.000282578777,0.000338551939,0.000384510688
-0.3,7.40548379e-06,0.000141933184,0.000250347557,0.000334468159,0.000401859868,0.000457224793
-0.35,7.49932174e-06,0.000159836486,0.000286468421,0.000384854161,0.000463733915,0.000528572349
-0.4,7.58388394e-06,0.000176158024,0.000321039302,0.000433752916,0.000524188109,0.000598565681
-0.45,7.6627204e-06,0.000190921047,0.000354078709,0.000481180333,0.000583236297,0.000667216965
-0.5,7.73747644e-06,0.00020414949,0.000385604881,0.000527152096,0.000640892148,0.000734538233
-0.55,7.80907479e-06,0.000215868803,0.000415635804,0.000571683674,0.000697169154,0.000800541373
-0.6,7.8781075e-06,0.000226107532,0.00044418922,0.000614790322,0.000752080637,0.000865238133
-0.65,7.94499092e-06,0.000234900493,0.000471282646,0.000656487085,0.000805639748,0.000928640123
-0.7,8.01003666e-06,0.000242295168,0.000496933398,0.000696788806,0.00085785947,0.000990758813
-0.75,8.07348812e-06,0.000248364081,0.000521158614,0.000735710127,0.000908752623,0.00105160554
-0.8,8.13554129e-06,0.000253224949,0.000543975298,0.000773265498,0.000958331867,0.00111119151
-0.85,8.19635756e-06,0.00025705986,0.00056540037,0.00080946918,0.0010066097,0.0011695278
-0.9,8.25607213e-06,0.00026010474,0.000585450741,0.000844335251,0.00105359848,0.00122662535
-0.95,8.31479975e-06,0.000262594444,0.000604143436,0.000877877611,0.00109931038,0.00128249499
-1.0,8.37263895e-06,0.000264709317,0.000621495768,0.000910109993,0.00114375746,0.00133714739
-1.05,8.42967506e-06,0.000266565948,0.000637525626,0.000941045966,0.0011869516,0.00139059315
-1.1,8.48598257e-06,0.000268235348,0.000652251949,0.000970698947,0.00122890457,0.00144284269
-1.15,8.54162697e-06,0.000269761695,0.00066569551,0.000999082211,0.00126962798,0.00149390637
-1.2,8.59666615e-06,0.000271174032,0.000677880274,0.0010262089,0.0013091333,0.00154379438
-1.25,8.65115158e-06,0.000272492612,0.000688835712,0.00105209206,0.00134743187,0.00159251684
-1.3,8.70512923e-06,0.000273732284,0.000698600655,0.00107674462,0.00138453489,0.00164008372
-1.35,8.75864034e-06,0.000274904375,0.000707229178,0.00110017946,0.00142045346,0.00168650491
-1.4,8.81172206e-06,0.000276017791,0.000714797873,0.00112240943,0.00145519853,0.00173179016
-1.45,8.86440796e-06,0.000277079706,0.000721410958,0.00114344742,0.00148878093,0.00177594914
-1.5,8.91672848e-06,0.000278096004,0.000727196802,0.00116330641,0.00152121139,0.0018189914
-1.55,8.96871135e-06,0.000279071588,0.000732293199,0.00118199959,0.0015525005,0.00186092639
-1.6,9.02038184e-06,0.000280010596,0.00073682887,0.00119954055,0.00158265877,0.00190176346
-1.65,9.07176309e-06,0.000280916551,0.000740911796,0.00121594351,0.00161169659,0.00194151184
-1.7,9.12287631e-06,0.00028179249,0.000744627044,0.00123122375,0.00163962426,0.00198018071
-1.75,9.17374103e-06,0.000282641044,0.000748040003,0.00124539829,0.00166645198,0.0020177791
-1.8,9.22437524e-06,0.00028346451,0.000751200892,0.00125848695,0.00169218987,0.00205431598
-1.85,9.27479554e-06,0.000284264909,0.000754148692,0.00127051411,0.00171684796,0.00208980021
-1.9,9.3250173e-06,0.000285044027,0.000756914116,0.00128151135,0.00174043623,0.00212424057
-1.95,9.3750548e-06,0.00028580345,0.000759521734,0.00129152096,0.00176296458,0.00215764574
-2.0,9.42492126e-06,0.000286544594,0.000761991486,0.00130059958,0.00178444285,0.00219002431
-2.05,9.47462902e-06,0.000287268729,0.000764339775,0.00130881976,0.00180488083,0.00222138479
-2.1,9.52418956e-06,0.000287976997,0.000766580247,0.00131626743,0.00182428827,0.0022517356
-2.15,9.57361361e-06,0.00028867043,0.000768724382,0.00132303512,0.00184267491,0.00228108505
-2.2,9.6229112e-06,0.000289349963,0.000770781923,0.00132921381,0.00186005044,0.00230944139
-2.25,9.67209172e-06,0.000290016448,0.000772761212,0.00133488675,0.00187642463,0.00233681273
-2.3,9.72116397e-06,0.000290670659,0.000774669447,0.00134012646,0.00189180748,0.0023632071
-2.35,9.77013624e-06,0.000291313306,0.00077651288,0.00134499426,0.00190620967,0.00238863239
-2.4,9.81901631e-06,0.00029194504,0.000778296976,0.00134954127,0.00191964359,0.00241309635
-2.45,9.86781149e-06,0.000292566457,0.000780026542,0.00135380988,0.00193212533,0.00243660655
-2.5,9.91652871e-06,0.00029317811,0.000781705825,0.00135783525,0.00194367805,0.0024591703
-2.55,9.9651745e-06,0.000293780506,0.000783338598,0.00136164672,0.00195433595,0.00248079461
-2.6,1.00137551e-05,0.000294374117,0.000784928228,0.00136526885,0.00196414742,0.00250148604
-2.65,1.00622762e-05,0.000294959377,0.000786477731,0.00136872238,0.0019731748,0.00252125053
-2.7,1.01107436e-05,0.000295536692,0.000787989818,0.00137202491,0.00198149046,0.00254009319
-2.75,1.01591626e-05,0.00029610644,0.000789466939,0.00137519151,0.00198917062,0.00255801804
-2.8,1.02075382e-05,0.00029666897,0.000790911311,0.00137823515,0.00199628958,0.00257502773
-2.85,1.02558754e-05,0.000297224612,0.000792324949,0.00138116705,0.00200291583,0.00259112354
-2.9,1.03041788e-05,0.000297773672,0.000793709689,0.00138399702,0.00200911023,0.00260630586
-2.95,1.03524532e-05,0.000298316437,0.000795067209,0.00138673362,0.00201492566,0.00262057592
-3.0,1.04007031e-05,0.000298853176,0.000796399046,0.0013893844,0.00202040748,0.00263393896
-3.05,1.04489328e-05,0.000299384142,0.000797706611,0.00139195606,0.00202559445,0.00264640886
-3.1,1.04971469e-05,0.000299909573,0.000798991203,0.00139445453,0.00203051957,0.00265801261
-3.15,1.05453499e-05,0.000300429693,0.000800254023,0.00139688512,0.00203521108,0.0026687925
-3.2,1.05935462e-05,0.000300944714,0.000801496179,0.00139925258,0.00203969314,0.00267880447
-3.25,1.06417406e-05,0.000301454835,0.000802718696,0.00140156119,0.00204398656,0.00268811356
-3.3,1.06899378e-05,0.000301960245,0.00080392253,0.0014038148,0.00204810934,0.00269678823
-3.35,1.07381432e-05,0.000302461124,0.000805108565,0.00140601693,0.00205207709,0.00270489557
-3.4,1.07863619e-05,0.000302957643,0.000806277627,0.00140817075,0.00205590346,0.00271249815
-3.45,1.08345999e-05,0.000303449965,0.000807430487,0.00141027914,0.00205960044,0.00271965243
-3.5,1.08828634e-05,0.000303938245,0.000808567864,0.00141234476,0.00206317856,0.00272640834
-3.55,1.09311592e-05,0.000304422635,0.000809690432,0.00141437003,0.00206664716,0.00273280952
-3.6,1.09794949e-05,0.000304903278,0.000810798821,0.00141635717,0.00207001456,0.00273889386
-3.65,1.10278785e-05,0.000305380316,0.000811893626,0.00141830823,0.00207328815,0.00274469419
-3.7,1.10763192e-05,0.000305853886,0.000812975402,0.0014202251,0.00207647459,0.00275023897
-3.75,1.11248268e-05,0.000306324124,0.000814044674,0.00142210952,0.00207957983,0.00275555291
-3.8,1.11734126e-05,0.000306791164,0.000815101939,0.00142396311,0.00208260926,0.00276065755
-3.85,1.12220886e-05,0.000307255142,0.000816147662,0.00142578738,0.00208556776,0.00276557169
-3.9,1.12708684e-05,0.000307716195,0.000817182287,0.00142758371,0.00208845976,0.00277031184
-3.95,1.13197671e-05,0.000308174462,0.000818206235,0.0014293534,0.00209128927,0.00277489252
-4.0,1.13688013e-05,0.000308630088,0.000819219905,0.00143109767,0.00209405999,0.0027793266
-4.05,1.14179892e-05,0.000309083224,0.00082022368,0.00143281764,0.00209677527,0.00278362548
-4.1,1.14673511e-05,0.000309534028,0.000821217926,0.00143451438,0.00209943821,0.00278779931
-4.15,1.15169093e-05,0.000309982672,0.000822202994,0.00143618887,0.00210205165,0.0027918572
-4.2,1.15666881e-05,0.000310429334,0.000823179227,0.00143784206,0.0021046182,0.00279580728
-4.25,1.16167144e-05,0.000310874212,0.000824146956,0.0014394748,0.00210714028,0.00279965691
-4.3,1.16670176e-05,0.000311317518,0.000825106508,0.00144108793,0.00210962013,0.00280341271
-4.35,1.17176298e-05,0.000311759483,0.000826058206,0.00144268223,0.00211205983,0.00280708069
-4.4,1.17685858e-05,0.000312200359,0.000827002371,0.00144425842,0.0021144613,0.00281066631
-4.45,1.18199237e-05,0.000312640426,0.000827939329,0.00144581721,0.00211682634,0.00281417454
-4.5,1.18716847e-05,0.000313079988,0.000828869411,0.00144735925,0.00211915661,0.00281760992
-4.55,1.19239135e-05,0.000313519381,0.000829792958,0.00144888517,0.00212145369,0.00282097662
-4.6,1.19766583e-05,0.000313958973,0.000830710325,0.00145039558,0.00212371902,0.00282427844
-4.65,1.20299713e-05,0.000314399171,0.000831621885,0.00145189105,0.00212595398,0.00282751892
-4.7,1.20839084e-05,0.000314840419,0.000832528036,0.00145337214,0.00212815984,0.00283070127
-4.75,1.21385298e-05,0.000315283207,0.0008334292,0.00145483938,0.00213033782,0.00283382851
-4.8,1.21939001e-05,0.000315728072,0.000834325837,0.0014562933,0.00213248904,0.00283690339
-4.85,1.22500883e-05,0.0003161756,0.000835218444,0.00145773443,0.00213461458,0.00283992848
-4.9,1.23071682e-05,0.000316626432,0.000836107564,0.00145916327,0.00213671543,0.00284290617
-4.95,1.23652184e-05,0.000317081267,0.000836993792,0.00146058034,0.00213879256,0.00284583869
-5.0,1.24243227e-05,0.000317540865,0.000837877781,0.00146198617,0.00214084687,0.00284872811
-5.05,1.248457e-05,0.000318006053,0.000838760251,0.0014633813,0.00214287923,0.00285157635
-5.1,1.25460547e-05,0.000318477726,0.000839641996,0.00146476627,0.00214489045,0.00285438522
-5.15,1.26088767e-05,0.000318956852,0.00084052389,0.00146614168,0.00214688132,0.00285715642
-5.2,1.26731418e-05,0.000319444476,0.000841406897,0.00146750813,0.00214885261,0.00285989154
-5.25,1.27389617e-05,0.000319941724,0.00084229208,0.00146886629,0.00215080505,0.00286259207
-5.3,1.28064541e-05,0.000320449807,0.000843180608,0.00147021688,0.00215273936,0.00286525941
-5.35,1.28757429e-05,0.000320970023,0.000844073766,0.00147156065,0.00215465625,0.0028678949
-5.4,1.29469585e-05,0.000321503761,0.000844972963,0.00147289845,0.00215655642,0.00287049977
-5.45,1.30202378e-05,0.000322052507,0.000845879745,0.0014742312,0.00215844058,0.00287307521
-5.5,1.30957243e-05,0.000322617845,0.000846795799,0.00147555992,0.00216030943,0.00287562235
-5.55,1.31735685e-05,0.000323201462,0.000847722967,0.00147688573,0.00216216371,0.00287814225
-5.6,1.32539276e-05,0.00032380515,0.000848663253,0.00147820985,0.00216400419,0.00288063594
-5.65,1.33369661e-05,0.00032443081,0.000849618836,0.00147953367,0.00216583165,0.0028831044
-5.7,1.34228555e-05,0.000325080456,0.000850592076,0.00148085868,0.00216764694,0.00288554857
-5.75,1.35117748e-05,0.000325756215,0.000851585526,0.00148218655,0.00216945096,0.00288796938
-5.8,1.36039103e-05,0.000326460335,0.000852601943,0.00148351914,0.00217124468,0.00289036772
-5.85,1.36994558e-05,0.000327195181,0.000853644295,0.00148485845,0.00217302917,0.00289274447
-5.9,1.37986128e-05,0.000327963245,0.000854715772,0.00148620674,0.00217480559,0.00289510053
-5.95,1.39015905e-05,0.000328767144,0.000855819796,0.00148756644,0.0021765752,0.00289743676
-6.0,1.40086058e-05,0.000329609622,0.000856960031,0.00148894025,0.00217833941,0.00289975409
-6.05,1.41198838e-05,0.000330493554,0.000858140387,0.00149033111,0.00218009976,0.00290205342
-6.1,1.42356571e-05,0.000331421949,0.000859365038,0.00149174222,0.00218185799,0.00290433574
-6.15,1.43561668e-05,0.00033239795,0.000860638424,0.00149317709,0.00218361599,0.00290660206
-6.2,1.44816616e-05,0.000333424834,0.000861965259,0.0014946395,0.00218537585,0.00290885346
-6.25,1.46123989e-05,0.000334506019,0.000863350546,0.00149613359,0.00218713993,0.00291109111
-6.3,1.47486438e-05,0.00033564506,0.000864799577,0.0014976638,0.00218891079,0.00291331626
-6.35,1.489067e-05,0.000336845655,0.000866317947,0.00149923495,0.00219069127,0.0029155303
-6.4,1.50387593e-05,0.000338111641,0.000867911555,0.00150085222,0.00219248453,0.00291773473
-6.45,1.51932019e-05,0.000339446999,0.000869586618,0.00150252118,0.00219429399,0.00291993121
-6.5,1.53542964e-05,0.000340855854,0.000871349671,0.0015042478,0.00219612347,0.00292212159
-6.55,1.55223498e-05,0.000342342475,0.000873207579,0.00150603848,0.00219797709,0.0029243079
-6.6,1.56976773e-05,0.000343911273,0.000875167537,0.00150790006,0.00219985941,0.00292649241
