vds,vb1,vb2,vb3,vb4,vb5,vb6
0.0,5335825.88,1260822.07,722354.374,513220.39,401585.45,331788.187
-0.05,8377121.59,1415258.06,770233.489,536161.373,414952.362,340488.69
-0.1,17474569.8,1612429.99,824858.759,561229.152,429228.962,349651.052
-0.15,58965162.2,1872702.75,887760.353,588733.549,444511.334,359313.043
-0.2,236597153.0,2231483.01,960966.95,619047.533,460909.575,369516.658
-0.25,713353920.0,2755515.21,1047225.22,652624.129,478550.444,380308.736
-0.3,1567173750.0,3583982.11,1150345.07,690019.04,497580.636,391741.672
-0.35,2724089510.0,5044020.29,1275762.18,731921.379,518170.845,403874.266
-0.4,4025254310.0,7999273.07,1431491.8,779196.057,540520.885,416772.735
-0.45,5327033680.0,14819035.7,1629822.18,832943.328,564866.149,430511.915
-0.5,6545712260.0,31045561.2,1890481.68,894584.063,591485.884,445176.71
-0.55,7650249980.0,65281765.7,2246916.0,965984.577,620713.866,460863.844
-0.6,8639938190.0,124340669.0,2759517.79,1049643.84,652952.34,477683.983
-0.65,9526947810.0,207882829.0,3545134.43,1148981.93,688690.446,495764.344
-0.7,10326801000.0,308639324.0,4844947.91,1268798.25,728528.893,515251.895
-0.75,11054219700.0,417074662.0,7173981.24,1416024.01,773213.474,536317.334
-0.8,11721747000.0,525507938.0,11583953.1,1601004.89,823681.32,559160.071
-0.85,12339578500.0,629438277.0,19871139.8,1839776.36,881125.831,584014.505
-0.9,12915834700.0,726982666.0,34190738.5,2158269.14,947089.574,611158.017
-0.95,13456940500.0,817843152.0,55868041.9,2600384.8,1023599.98,640921.252
-1.0,13967983600.0,902489565.0,84402868.5,3243910.66,1113372.13,673701.475
-1.05,14453014000.0,981671606.0,117711597.0,4231696.0,1220119.4,709980.131
-1.1,14915281100.0,1056173600.0,153243244.0,5828067.54,1349042.44,750346.204
-1.15,15357415400.0,1126709970.0,188926308.0,8498160.33,1507621.31,795527.731
-1.2,15781568100.0,1193891940.0,223489632.0,12950259.5,1706937.66,846434.935
-1.25,16189516300.0,1258226550.0,256346373.0,19999100.0,1963947.08,904220.186
-1.3,16582743100.0,1320128210.0,287349426.0,30187537.0,2305482.29,970362.827
-1.35,16962498600.0,1379933590.0,316583199.0,43419083.5,2775399.85,1046791.41
-1.4,17329846800.0,1437916010.0,344230025.0,58956381.9,3447180.12,1136063.42
-1.45,17685701700.0,1494297900.0,370497353.0,75774990.1,4444703.0,1241635.18
-1.5,18030854600.0,1549261100.0,395583166.0,92948721.6,5970583.29,1368276.44
-1.55,18365995500.0,1602955100.0,419662357.0,109839978.0,8327212.32,1522721.92
-1.6,18691729400.0,1655503560.0,442883513.0,126103093.0,11889745.4,1714717.92
-1.65,19008587900.0,1707009530.0,465370345.0,141604330.0,16988709.7,1958735.6
-1.7,19317037200.0,1757559410.0,487224833.0,156335756.0,23737675.2,2276806.87
-1.75,19617482700.0,1807226180.0,508530726.0,170352136.0,31938706.8,2703197.14
-1.8,19910270000.0,1856071850.0,529356791.0,183732588.0,41155079.7,3291831.18
-1.85,20195682900.0,1904149390.0,549759623.0,196560118.0,50885743.8,4126962.31
-1.9,20473937300.0,1951504110.0,569785967.0,208912020.0,60711915.9,5334981.61
-1.95,20745171500.0,1998174740.0,589474620.0,220856229.0,70355297.4,7088434.25
-2.0,21009433700.0,2044194010.0,608857940.0,232450649.0,79667469.1,9584564.55
-2.05,21266664100.0,2089588850.0,627963067.0,243743831.0,88592249.8,12985066.8
-2.1,21516675100.0,2134380170.0,646812882.0,254776148.0,97128479.5,17337031.7
-2.15,21759126000.0,2178582180.0,665426761.0,265581059.0,105302979.0,22531140.8
-2.2,21993496600.0,2222201110.0,683821164.0,276186293.0,113153858.0,28334870.5
-2.25,22219056800.0,2265233420.0,702010065.0,286614870.0,120721344.0,34475244.0
-2.3,22434835100.0,2307663230.0,720005253.0,296885961.0,128043302.0,40714097.2
-2.35,22639587000.0,2349459180.0,737816482.0,307015591.0,135153405.0,46883635.1
-2.4,22831764400.0,2390570370.0,755451484.0,317017218.0,142080684.0,52886504.2
-2.45,23009488200.0,2430921680.0,772915807.0,326902188.0,148849744.0,58678924.5
-2.5,23170526700.0,2470408250.0,790212473.0,336680108.0,155481251.0,64251409.4
-2.55,23312283000.0,2508889320.0,807341415.0,346359129.0,161992488.0,69613503.3
-2.6,23431794200.0,2546181600.0,824298661.0,355946166.0,168397894.0,74783663.5
-2.65,23525746800.0,2582052330.0,841075252.0,365447042.0,174709544.0,79783292.0
-2.7,23590510800.0,2616212370.0,857655841.0,374866577.0,180937560.0,84633552.3
-2.75,23622198800.0,2648309910.0,874016977.0,384208588.0,187090451.0,89353870.0
-2.8,23616749200.0,2677925280.0,890125042.0,393475826.0,193175400.0,93961374.8
-2.85,23570039000.0,2704567740.0,905933872.0,402669801.0,199198485.0,98470833.0
-2.9,23478022800.0,2727675160.0,921382081.0,411790501.0,205164868.0,102894810.0
-2.95,23336898300.0,2746617630.0,936390146.0,420835992.0,211078937.0,107243927.0
-3.0,23143289400.0,2760706070.0,950857384.0,429801851.0,216944406.0,111527131.0
-3.05,22894440900.0,2769207010.0,964658942.0,438680455.0,222764385.0,115751958.0
-3.1,22588409800.0,2771364080.0,977643059.0,447460079.0,228541408.0,119924760.0
-3.15,22224240900.0,2766426740.0,989628870.0,456123812.0,234277414.0,124050902.0
-3.2,21802109200.0,2753685740.0,1000405130.0,464648291.0,239973677.0,128134932.0
-3.25,21323415100.0,2732513920.0,1009730320.0,473002250.0,245630677.0,132180708.0
-3.3,20790819300.0,2702410130.0,1017334600.0,481144939.0,251247895.0,136191517.0
