vds,vb1,vb2,vb3,vb4,vb5,vb6
0.0,-0.0,-0.0,-0.0,-0.0,-0.0,-0.0
0.05,7.45096058e-07,3.65936704e-06,5.75948782e-06,7.31906391e-06,8.46910712e-06,9.30428365e-06
0.1,1.32736721e-06,7.15639005e-06,1.13631977e-05,1.44915114e-05,1.68027043e-05,1.84849863e-05
0.15,1.74896107e-06,1.04927906e-05,1.68128699e-05,2.15189123e-05,2.50021404e-05,2.75432379e-05
0.2,2.01612048e-06,1.36702664e-05,2.21102188e-05,2.8402814e-05,3.30687463e-05,3.6480155e-05
0.25,2.15588682e-06,1.66904913e-05,2.72569332e-05,3.51447418e-05,4.10038354e-05,4.52968402e-05
0.3,2.23036253e-06,1.95551159e-05,3.22546767e-05,4.17461995e-05,4.88087037e-05,5.3994383e-05
0.35,2.28253509e-06,2.22657673e-05,3.71050878e-05,4.8208669e-05,5.64846299e-05,6.25738595e-05
0.4,2.32468425e-06,2.48240495e-05,4.18097805e-05,5.45336113e-05,6.4032876e-05,7.10363328e-05
0.45,2.36060742e-06,2.72315428e-05,4.63703441e-05,6.07224665e-05,7.14546871e-05,7.93828531e-05
0.5,2.39209093e-06,2.94898019e-05,5.07883437e-05,6.67766536e-05,7.87512918e-05,8.76144578e-05
0.55,2.42019598e-06,3.16003529e-05,5.506532e-05,7.26975713e-05,8.59239023e-05,9.57321717e-05
0.6,2.44562818e-06,3.35646851e-05,5.92027897e-05,7.84865981e-05,9.29737145e-05,0.000103737007
0.65,2.46888759e-06,3.53842332e-05,6.32022447e-05,8.41450919e-05,9.99019083e-05,0.000111629963
0.7,2.49034386e-06,3.70603351e-05,6.7065152e-05,8.9674391e-05,0.000106709648,0.000119412028
0.75,2.51027882e-06,3.85941309e-05,7.07929525e-05,9.50758135e-05,0.000113398081,0.000127084177
0.8,2.52891267e-06,3.99863141e-05,7.43870595e-05,0.000100350658,0.00011996834,0.000134647373
0.85,2.54642083e-06,4.1236537e-05,7.78488555e-05,0.000105500203,0.000126421542,0.000142102567
0.9,2.56294545e-06,4.23423155e-05,8.11796875e-05,0.000110525706,0.000132758789,0.000149450699
0.95,2.57860332e-06,4.32989134e-05,8.43808581e-05,0.000115428408,0.000138981166,0.000156692695
1.0,2.5934916e-06,4.41056859e-05,8.74536108e-05,0.000120209526,0.000145089746,0.000163829471
1.05,2.60769199e-06,4.47765649e-05,9.0399104e-05,0.000124870257,0.000151085583,0.000170861931
1.1,2.62127386e-06,4.53372744e-05,9.32183638e-05,0.000129411777,0.000156969719,0.000177790969
1.15,2.6342966e-06,4.58135503e-05,9.59121952e-05,0.000133835235,0.000162743181,0.000184617464
1.2,2.64681148e-06,4.62255265e-05,9.84810109e-05,0.000138141755,0.000168406977,0.000191342287
1.25,2.65886303e-06,4.65877716e-05,0.000100924487,0.000142332431,0.000173962105,0.000197966295
1.3,2.6704902e-06,4.69107295e-05,0.000103240857,0.000146408317,0.000179409545,0.000204490337
1.35,2.68172722e-06,4.72019984e-05,0.000105425496,0.000150370419,0.00018475026,0.000210915249
1.4,2.69260438e-06,4.7467225e-05,0.000107468349,0.000154219677,0.000189985198,0.000217241854
1.45,2.70314859e-06,4.77106984e-05,0.000109350854,0.000157956938,0.000195115289,0.000223470968
1.5,2.71338384e-06,4.79357435e-05,0.000111047276,0.000161582911,0.000200141443,0.000229603393
1.55,2.72333167e-06,4.8144985e-05,0.000112537806,0.000165098087,0.000205064549,0.000235639921
1.6,2.73301143e-06,4.83405289e-05,0.000113824945,0.000168502599,0.000209885472,0.000241581332
1.65,2.7424406e-06,4.85240895e-05,0.00011493264,0.000171795978,0.000214605045,0.000247428395
1.7,2.75163502e-06,4.869708e-05,0.000115892499,0.000174976692,0.000219224065,0.000253181866
1.75,2.7606091e-06,4.88606787e-05,0.000116733663,0.000178041289,0.000223743281,0.000258842489
1.8,2.76937596e-06,4.90158781e-05,0.000117479635,0.000180982822,0.000228163377,0.000264410996
1.85,2.77794761e-06,4.91635218e-05,0.000118148525,0.000183788223,0.000232484944,0.000269888102
1.9,2.78633506e-06,4.93043331e-05,0.000118754156,0.000186434941,0.000236708445,0.000275274507
1.95,2.79454842e-06,4.94389361e-05,0.000119307152,0.00018889002,0.00024083414,0.000280570893
2.0,2.80259702e-06,4.95678737e-05,0.000119815774,0.000191118178,0.000244861983,0.000285777919
2.05,2.81048946e-06,4.96916205e-05,0.00012028654,0.000193099246,0.000248791435,0.00029089622
2.1,2.81823371e-06,4.98105941e-05,0.000120724662,0.000194839317,0.000252621145,0.000295926395
2.15,2.82583717e-06,4.9925164e-05,0.000121134365,0.000196364679,0.000256348394,0.000300869004
2.2,2.83330669e-06,5.00356583e-05,0.000121519117,0.000197708641,0.000259968113,0.000305724547
2.25,2.84064867e-06,5.01423699e-05,0.000121881795,0.000198902697,0.000263471229,0.000310493451
2.3,2.84786908e-06,5.02455615e-05,0.000122224809,0.000199973319,0.000266842093,0.000315176031
2.35,2.85497348e-06,5.03454693e-05,0.000122550201,0.000200941741,0.000270055479,0.000319772448
2.4,2.86196709e-06,5.04423069e-05,0.00012285971,0.000201824748,0.0002730757,0.000324282628
2.45,2.8688548e-06,5.05362675e-05,0.000123154835,0.000202635616,0.000275862873,0.000328706143
2.5,2.87564118e-06,5.06275271e-05,0.00012343687,0.000203384916,0.000278387672,0.000333042013
2.55,2.88233055e-06,5.07162461e-05,0.000123706945,0.000204081147,0.000280644267,0.000337288375
2.6,2.88892697e-06,5.08025712e-05,0.000123966051,0.000204731222,0.000282649946,0.000341441932
2.65,2.89543425e-06,5.08866369e-05,0.000124215059,0.000205340819,0.00028443473,0.000345497034
2.7,2.90185601e-06,5.09685669e-05,0.000124454742,0.000205914649,0.000286031272,0.000349444191
2.75,2.90819566e-06,5.10484754e-05,0.000124685788,0.000206456662,0.000287469415,0.000353267874
2.8,2.9144564e-06,5.11264677e-05,0.000124908812,0.000206970197,0.000288774409,0.000356943928
2.85,2.9206413e-06,5.12026413e-05,0.000125124367,0.0002074581,0.000289966938,0.000360438323
2.9,2.92675325e-06,5.12770867e-05,0.000125332948,0.000207922815,0.000291063757,0.000363710788
2.95,2.93279499e-06,5.13498882e-05,0.000125535006,0.000208366456,0.000292078439,0.000366725656
3.0,2.93876911e-06,5.14211241e-05,0.000125730948,0.000208790863,0.000293022034,0.000369464829
3.05,2.9446781e-06,5.14908677e-05,0.000125921145,0.000209197647,0.000293903607,0.000371932834
3.1,2.95052431e-06,5.15591873e-05,0.000126105937,0.000209588225,0.000294730655,0.000374151366
3.15,2.95630998e-06,5.1626147e-05,0.000126285634,0.000209963852,0.000295509433,0.000376149971
3.2,2.96203723e-06,5.16918067e-05,0.000126460519,0.000210325644,0.000296245205,0.000377958951
3.25,2.96770811e-06,5.17562231e-05,0.000126630856,0.000210674596,0.000296942436,0.000379605803
3.3,2.97332456e-06,5.1819449e-05,0.000126796886,0.000211011601,0.000297604943,0.000381114086
3.35,2.97888843e-06,5.18815345e-05,0.000126958831,0.000211337462,0.000298236008,0.000382503463
3.4,2.98440148e-06,5.19425266e-05,0.000127116901,0.000211652906,0.000298838478,0.000383790193
3.45,2.98986542e-06,5.20024699e-05,0.000127271286,0.00021195859,0.000299414833,0.000384987701
3.5,2.99528186e-06,5.20614064e-05,0.000127422166,0.000212255113,0.000299967248,0.000386107116
3.55,3.00065234e-06,5.21193759e-05,0.000127569707,0.000212543019,0.000300497637,0.000387157714
3.6,3.00597835e-06,5.2176416e-05,0.000127714066,0.000212822809,0.000301007699,0.000388147278
3.65,3.01126132e-06,5.22325625e-05,0.000127855387,0.000213094939,0.000301498942,0.000389082386
3.7,3.01650261e-06,5.22878493e-05,0.000127993807,0.000213359831,0.000301972717,0.000389968636
3.75,3.02170351e-06,5.23423086e-05,0.000128129456,0.000213617872,0.000302430232,0.000390810826
3.8,3.0268653e-06,5.23959709e-05,0.000128262452,0.000213869422,0.000302872577,0.000391613093
3.85,3.03198916e-06,5.24488656e-05,0.000128392909,0.000214114812,0.000303300738,0.000392379029
3.9,3.03707626e-06,5.25010202e-05,0.000128520934,0.00021435435,0.000303715608,0.000393111767
3.95,3.04212772e-06,5.25524612e-05,0.000128646627,0.000214588324,0.000304117998,0.000393814061
4.0,3.04714459e-06,5.26032139e-05,0.000128770085,0.000214817,0.00030450865,0.000394488335
4.05,3.0521279e-06,5.26533023e-05,0.000128891396,0.000215040627,0.000304888243,0.000395136742
4.1,3.05707865e-06,5.27027493e-05,0.000129010646,0.000215259438,0.000305257398,0.000395761195
4.15,3.06199779e-06,5.2751577e-05,0.000129127915,0.000215473652,0.000305616688,0.000396363408
4.2,3.06688623e-06,5.27998063e-05,0.000129243281,0.000215683473,0.000305966641,0.000396944917
4.25,3.07174485e-06,5.28474573e-05,0.000129356816,0.000215889095,0.000306307744,0.000397507105
4.3,3.07657451e-06,5.28945493e-05,0.000129468588,0.000216090696,0.00030664045,0.000398051225
4.35,3.08137603e-06,5.29411005e-05,0.000129578664,0.00021628845,0.000306965178,0.000398578412
4.4,3.0861502e-06,5.29871288e-05,0.000129687107,0.000216482515,0.000307282318,0.000399089699
4.45,3.09089777e-06,5.30326509e-05,0.000129793975,0.000216673044,0.000307592235,0.000399586029
4.5,3.0956195e-06,5.3077683e-05,0.000129899326,0.00021686018,0.000307895268,0.000400068264
4.55,3.10031608e-06,5.31222409e-05,0.000130003213,0.00021704406,0.000308191734,0.000400537197
4.6,3.10498821e-06,5.31663392e-05,0.000130105689,0.000217224813,0.00030848193,0.000400993555
4.65,3.10963654e-06,5.32099926e-05,0.000130206803,0.000217402559,0.000308766137,0.000401438011
4.7,3.11426172e-06,5.32532146e-05,0.000130306602,0.000217577416,0.000309044617,0.000401871186
4.75,3.11886436e-06,5.32960185e-05,0.000130405132,0.000217749493,0.000309317615,0.000402293656
4.8,3.12344507e-06,5.33384171e-05,0.000130502434,0.000217918895,0.000309585366,0.000402705954
4.85,3.12800442e-06,5.33804227e-05,0.000130598552,0.000218085723,0.000309848088,0.000403108579
4.9,3.13254297e-06,5.34220469e-05,0.000130693524,0.00021825007,0.000310105989,0.000403501993
4.95,3.13706127e-06,5.34633012e-05,0.000130787388,0.000218412027,0.000310359265,0.000403886629
5.0,3.14155983e-06,5.35041965e-05,0.000130880182,0.000218571682,0.000310608101,0.000404262892
5.05,3.14603916e-06,5.35447432e-05,0.000130971939,0.000218729115,0.000310852673,0.000404631161
5.1,3.15049976e-06,5.35849516e-05,0.000131062693,0.000218884407,0.000311093149,0.000404991792
5.15,3.1549421e-06,5.36248313e-05,0.000131152476,0.000219037631,0.000311329687,0.000405345119
5.2,3.15936663e-06,5.36643918e-05,0.00013124132,0.000219188861,0.000311562436,0.000405691458
5.25,3.16377382e-06,5.37036422e-05,0.000131329253,0.000219338164,0.000311791542,0.000406031105
5.3,3.16816408e-06,5.37425912e-05,0.000131416306,0.000219485608,0.000312017139,0.00040636434
5.35,3.17253784e-06,5.37812473e-05,0.000131502503,0.000219631253,0.000312239358,0.000406691427
5.4,3.17689551e-06,5.38196186e-05,0.000131587873,0.000219775163,0.000312458322,0.000407012617
5.45,3.18123747e-06,5.3857713e-05,0.000131672441,0.000219917393,0.00031267415,0.000407328146
5.5,3.18556412e-06,5.38955382e-05,0.000131756231,0.000220058,0.000312886955,0.00040763824
5.55,3.18987582e-06,5.39331013e-05,0.000131839266,0.000220197037,0.000313096844,0.00040794311
5.6,3.19417293e-06,5.39704096e-05,0.000131921569,0.000220334555,0.00031330392,0.00040824296
5.65,3.1984558e-06,5.40074699e-05,0.000132003162,0.000220470604,0.000313508281,0.000408537982
5.7,3.20272477e-06,5.40442889e-05,0.000132084066,0.00022060523,0.000313710022,0.000408828358
5.75,3.20698017e-06,5.40808728e-05,0.000132164301,0.000220738479,0.000313909233,0.000409114263
5.8,3.21122232e-06,5.4117228e-05,0.000132243887,0.000220870394,0.000314106001,0.000409395863
5.85,3.21545153e-06,5.41533603e-05,0.000132322842,0.000221001018,0.000314300407,0.000409673316
5.9,3.2196681e-06,5.41892757e-05,0.000132401185,0.00022113039,0.000314492532,0.000409946772
5.95,3.22387233e-06,5.42249797e-05,0.000132478933,0.00022125855,0.000314682451,0.000410216376
6.0,3.2280645e-06,5.42604777e-05,0.000132556104,0.000221385534,0.000314870238,0.000410482267
6.05,3.23224488e-06,5.4295775e-05,0.000132632712,0.00022151138,0.000315055962,0.000410744574
6.1,3.23641376e-06,5.43308767e-05,0.000132708775,0.00022163612,0.000315239692,0.000411003424
6.15,3.24057138e-06,5.43657877e-05,0.000132784307,0.00022175979,0.00031542149,0.000411258938
6.2,3.24471801e-06,5.44005128e-05,0.000132859324,0.00022188242,0.000315601421,0.00041151123
6.25,3.24885389e-06,5.44350566e-05,0.000132933839,0.000222004042,0.000315779542,0.000411760412
6.3,3.25297927e-06,5.44694236e-05,0.000133007865,0.000222124686,0.000315955912,0.000412006589
6.35,3.25709437e-06,5.45036181e-05,0.000133081417,0.00022224438,0.000316130586,0.000412249862
6.4,3.26119943e-06,5.45376444e-05,0.000133154507,0.000222363153,0.000316303618,0.000412490329
6.45,3.26529467e-06,5.45715065e-05,0.000133227148,0.00022248103,0.000316475057,0.000412728083
6.5,3.26938031e-06,5.46052084e-05,0.000133299352,0.000222598039,0.000316644954,0.000412963214
6.55,3.27345655e-06,5.46387539e-05,0.000133371129,0.000222714203,0.000316813356,0.000413195808
6.6,3.27752361e-06,5.46721468e-05,0.000133442492,0.000222829548,0.000316980308,0.000413425948
