vds,vb1,vb2,vb3,vb4,vb5,vb6
0.0,-0.0,-0.0,-0.0,-0.0,-0.0,-0.0
0.05,6.18013213e-07,3.70773839e-06,6.01967828e-06,7.77413394e-06,9.11325112e-06,1.01368663e-05
0.1,1.08826848e-06,7.2702732e-06,1.19102893e-05,1.54340347e-05,1.81256271e-05,2.01847782e-05
0.15,1.41224253e-06,1.068808e-05,1.76722779e-05,2.2980081e-05,2.70374407e-05,3.01439911e-05
0.2,1.59612875e-06,1.39616324e-05,2.33060869e-05,3.041265e-05,3.58490034e-05,4.00147597e-05
0.25,1.66971142e-06,1.70914024e-05,2.88121573e-05,3.77321169e-05,4.45606255e-05,4.97973372e-05
0.3,1.69533171e-06,2.00778605e-05,3.41909278e-05,4.49388555e-05,5.31726159e-05,5.94919762e-05
0.35,1.70936553e-06,2.29214755e-05,3.94428353e-05,5.2033238e-05,6.16852823e-05,6.90989283e-05
0.4,1.71996235e-06,2.56227149e-05,4.45683147e-05,5.90156347e-05,7.0098931e-05,7.8618444e-05
0.45,1.72888826e-06,2.81820453e-05,4.95677987e-05,6.58864144e-05,7.84138672e-05,8.8050773e-05
0.5,1.73673153e-06,3.05999325e-05,5.44417184e-05,7.26459445e-05,8.66303947e-05,9.7396164e-05
0.55,1.74377323e-06,3.28768425e-05,5.91905026e-05,7.92945903e-05,9.47488163e-05,0.000106654865
0.6,1.75018092e-06,3.50132417e-05,6.38145784e-05,8.58327161e-05,0.000102769433,0.000115827122
0.65,1.75606798e-06,3.70095988e-05,6.83143709e-05,9.2260684e-05,0.000110692546,0.000124913181
0.7,1.76151697e-06,3.88663862e-05,7.26903031e-05,9.85788549e-05,0.000118518453,0.000133913288
0.75,1.76659094e-06,4.05840842e-05,7.69427965e-05,0.000104787588,0.000126247452,0.000142827686
0.8,1.77133956e-06,4.21631861e-05,8.10722704e-05,0.000110887241,0.00013387984,0.000151656618
0.85,1.77580288e-06,4.3604209e-05,8.50791421e-05,0.00011687817,0.000141415911,0.000160400326
0.9,1.7800138e-06,4.49077132e-05,8.89638274e-05,0.000122760729,0.000148855961,0.000169059053
0.95,1.7839997e-06,4.60743416e-05,9.27267399e-05,0.000128535272,0.000156200281,0.000177633037
1.0,1.78778366e-06,4.71049026e-05,9.63682915e-05,0.000134202149,0.000163449165,0.000186122519
1.05,1.79138536e-06,4.80005563e-05,9.98888923e-05,0.000139761712,0.0001706029,0.000194527737
1.1,1.79482168e-06,4.8763256e-05,0.00010328895,0.000145214307,0.000177661779,0.000202848928
1.15,1.79810725e-06,4.93967947e-05,0.000106568872,0.000150560282,0.000184626087,0.000211086329
1.2,1.80125483e-06,4.99090103e-05,0.000109729061,0.000155799982,0.000191496113,0.000219240177
1.25,1.80427561e-06,5.03147876e-05,0.000112769921,0.000160933751,0.000198272142,0.000227310705
1.3,1.80717946e-06,5.06361092e-05,0.000115691851,0.000165961931,0.000204954459,0.000235298148
1.35,1.80997516e-06,5.08960525e-05,0.000118495251,0.000170884862,0.000211543347,0.00024320274
1.4,1.8126705e-06,5.11126862e-05,0.000121180517,0.000175702885,0.000218039088,0.000251024712
1.45,1.81527248e-06,5.12981296e-05,0.000123748042,0.000180416336,0.000224441963,0.000258764296
1.5,1.81778737e-06,5.14602588e-05,0.000126198218,0.000185025552,0.000230752254,0.000266421722
1.55,1.82022086e-06,5.16043306e-05,0.000128531434,0.000189530867,0.000236970237,0.000273997221
1.6,1.82257807e-06,5.17339996e-05,0.000130748074,0.000193932615,0.000243096191,0.00028149102
1.65,1.82486366e-06,5.18519056e-05,0.000132848519,0.000198231126,0.000249130394,0.000288903348
1.7,1.82708187e-06,5.19600189e-05,0.000134833141,0.00020242673,0.000255073119,0.000296234433
1.75,1.8292366e-06,5.20598497e-05,0.000136702306,0.000206519757,0.000260924641,0.000303484499
1.8,1.83133139e-06,5.21525821e-05,0.000138456365,0.000210510532,0.000266685234,0.000310653773
1.85,1.83336952e-06,5.22391621e-05,0.000140095649,0.00021439938,0.000272355169,0.000317742479
1.9,1.83535398e-06,5.23203576e-05,0.000141620455,0.000218186624,0.000277934718,0.000324750841
1.95,1.83728755e-06,5.23968009e-05,0.000143031034,0.000221872585,0.00028342415,0.000331679082
2.0,1.83917281e-06,5.24690187e-05,0.000144327565,0.000225457583,0.000288823734,0.000338527424
2.05,1.84101214e-06,5.25374545e-05,0.000145510156,0.000228941933,0.000294133737,0.000345296087
2.1,1.84280773e-06,5.26024854e-05,0.000146578929,0.000232325951,0.000299354425,0.000351985293
2.15,1.84456165e-06,5.26644348e-05,0.00014753443,0.000235609948,0.000304486065,0.000358595261
2.2,1.84627582e-06,5.27235817e-05,0.000148378727,0.000238794232,0.00030952892,0.000365126209
2.25,1.84795202e-06,5.27801693e-05,0.000149117198,0.000241879107,0.000314483252,0.000371578356
2.3,1.84959194e-06,5.283441e-05,0.000149759692,0.000244864875,0.000319349324,0.000377951918
2.35,1.85119712e-06,5.2886491e-05,0.000150319425,0.000247751828,0.000324127396,0.000384247112
2.4,1.85276906e-06,5.2936578e-05,0.000150810324,0.000250540254,0.000328817728,0.000390464154
2.45,1.85430912e-06,5.29848181e-05,0.0001512449,0.00025323043,0.000333420577,0.000396603257
2.5,1.8558186e-06,5.30313429e-05,0.000151633453,0.00025582262,0.0003379362,0.000402664636
2.55,1.85729874e-06,5.30762705e-05,0.000151984133,0.000258317071,0.000342364852,0.000408648503
2.6,1.85875068e-06,5.3119707e-05,0.000152303313,0.000260714004,0.000346706789,0.000414555071
2.65,1.86017551e-06,5.31617484e-05,0.000152595991,0.000263013605,0.000350962261,0.000420384552
2.7,1.86157426e-06,5.32024818e-05,0.000152866116,0.000265216005,0.000355131521,0.000426137154
2.75,1.8629479e-06,5.32419864e-05,0.000153116848,0.000267321255,0.000359214817,0.000431813089
2.8,1.86429737e-06,5.32803343e-05,0.000153350742,0.000269329285,0.000363212397,0.000437412565
2.85,1.86562352e-06,5.33175916e-05,0.00015356989,0.000271239832,0.000367124507,0.000442935791
2.9,1.86692719e-06,5.33538191e-05,0.000153776022,0.000273052335,0.00037095139,0.000448382972
2.95,1.86820917e-06,5.33890724e-05,0.000153970586,0.000274765771,0.000374693286,0.000453754316
3.0,1.86947021e-06,5.3423403e-05,0.000154154801,0.000276378423,0.000378350434,0.000459050028
3.05,1.87071102e-06,5.34568583e-05,0.000154329708,0.000277887633,0.000381923068,0.000464270313
3.1,1.87193228e-06,5.34894824e-05,0.000154496197,0.00027928971,0.000385411419,0.000469415374
3.15,1.87313463e-06,5.3521316e-05,0.000154655038,0.000280580452,0.000388815713,0.000474485414
3.2,1.87431869e-06,5.35523971e-05,0.0001548069,0.000281756728,0.000392136168,0.000479480635
3.25,1.87548505e-06,5.3582761e-05,0.000154952369,0.000282818839,0.000395372999,0.000484401239
3.3,1.87663427e-06,5.36124407e-05,0.00015509196,0.000283772076,0.000398526406,0.000489247424
3.35,1.87776689e-06,5.3641467e-05,0.000155226128,0.000284626148,0.000401596581,0.00049401939
3.4,1.87888343e-06,5.36698688e-05,0.000155355279,0.000285393047,0.000404583698,0.000498717335
3.45,1.87998436e-06,5.3697673e-05,0.000155479773,0.000286084927,0.00040748791,0.000503341456
3.5,1.88107017e-06,5.37249051e-05,0.000155599934,0.000286712838,0.000410309339,0.000507891947
3.55,1.8821413e-06,5.3751589e-05,0.000155716054,0.000287286262,0.00041304807,0.000512369004
3.6,1.88319818e-06,5.37777471e-05,0.000155828395,0.000287813104,0.000415704128,0.00051677282
3.65,1.88424124e-06,5.38034006e-05,0.000155937196,0.000288299882,0.000418277458,0.000521103585
3.7,1.88527086e-06,5.38285696e-05,0.000156042672,0.00028875196,0.00042076789,0.00052536149
3.75,1.88628743e-06,5.38532727e-05,0.000156145023,0.000289173764,0.000423175082,0.000529546723
3.8,1.88729132e-06,5.38775281e-05,0.000156244427,0.00028956897,0.00042549844,0.000533659469
3.85,1.88828287e-06,5.39013525e-05,0.000156341051,0.000289940647,0.000427736991,0.000537699913
3.9,1.88926242e-06,5.39247619e-05,0.000156435046,0.000290291382,0.000429889205,0.000541668235
3.95,1.89023031e-06,5.39477717e-05,0.000156526553,0.000290623367,0.000431952731,0.000545564614
4.0,1.89118683e-06,5.39703962e-05,0.000156615701,0.000290938477,0.000433924068,0.000549389223
4.05,1.89213231e-06,5.39926491e-05,0.000156702609,0.000291238322,0.000435798247,0.000553142232
4.1,1.89306702e-06,5.40145436e-05,0.000156787389,0.000291524297,0.00043756874,0.000556823807
4.15,1.89399124e-06,5.4036092e-05,0.000156870144,0.000291797617,0.000439228031,0.000560434104
4.2,1.89490525e-06,5.40573061e-05,0.000156950969,0.000292059345,0.000440769211,0.000563973274
4.25,1.8958093e-06,5.40781973e-05,0.000157029955,0.000292310417,0.000442188317,0.000567441457
4.3,1.89670365e-06,5.40987763e-05,0.000157107185,0.000292551661,0.000443486227,0.00057083878
4.35,1.89758853e-06,5.41190534e-05,0.000157182737,0.000292783814,0.000444668884,0.000574165354
4.4,1.89846418e-06,5.41390385e-05,0.000157256685,0.000293007533,0.000445745895,0.000577421267
4.45,1.89933083e-06,5.41587408e-05,0.000157329097,0.000293223406,0.00044672856,0.000580606581
4.5,1.9001887e-06,5.41781694e-05,0.000157400038,0.000293431963,0.000447628265,0.00058372132
4.55,1.90103799e-06,5.41973329e-05,0.000157469569,0.000293633683,0.000448455547,0.000586765455
4.6,1.9018789e-06,5.42162394e-05,0.000157537747,0.000293828999,0.000449219707,0.000589738892
4.65,1.90271164e-06,5.4234897e-05,0.000157604627,0.000294018304,0.00044992875,0.000592641438
4.7,1.9035364e-06,5.42533131e-05,0.00015767026,0.000294201956,0.000450589482,0.000595472769
4.75,1.90435335e-06,5.42714949e-05,0.000157734693,0.000294380285,0.000451207664,0.00059823237
4.8,1.90516268e-06,5.42894495e-05,0.000157797973,0.00029455359,0.000451788175,0.000600919461
4.85,1.90596456e-06,5.43071836e-05,0.000157860143,0.000294722147,0.000452335158,0.000603532872
4.9,1.90675916e-06,5.43247034e-05,0.000157921245,0.000294886212,0.000452852144,0.000606070885
4.95,1.90754663e-06,5.43420152e-05,0.000157981316,0.000295046018,0.000453342159,0.000608530997
5.0,1.90832714e-06,5.43591249e-05,0.000158040395,0.000295201782,0.000453807811,0.000610909619
5.05,1.90910083e-06,5.43760383e-05,0.000158098517,0.000295353707,0.000454251359,0.000613201734
5.1,1.90986785e-06,5.43927607e-05,0.000158155714,0.000295501978,0.000454674768,0.000615400623
5.15,1.91062836e-06,5.44092975e-05,0.00015821202,0.000295646771,0.00045507976,0.000617497886
5.2,1.91138247e-06,5.44256537e-05,0.000158267465,0.000295788248,0.000455467849,0.000619484111
5.25,1.91213033e-06,5.44418343e-05,0.000158322077,0.000295926559,0.000455840373,0.000621350415
5.3,1.91287208e-06,5.44578439e-05,0.000158375884,0.000296061847,0.000456198519,0.000623090555
5.35,1.91360782e-06,5.4473687e-05,0.000158428913,0.000296194245,0.000456543345,0.000624702713
5.4,1.9143377e-06,5.44893682e-05,0.00015848119,0.000296323877,0.0004568758,0.000626190023
5.45,1.91506182e-06,5.45048915e-05,0.000158532738,0.000296450861,0.000457196732,0.000627559714
5.5,1.91578031e-06,5.45202612e-05,0.000158583581,0.000296575307,0.00045750691,0.000628821526
5.55,1.91649327e-06,5.4535481e-05,0.000158633741,0.000296697318,0.000457807027,0.000629986164
5.6,1.91720081e-06,5.45505548e-05,0.000158683238,0.000296816992,0.000458097712,0.000631064192
5.65,1.91790305e-06,5.45654863e-05,0.000158732095,0.000296934423,0.000458379538,0.000632065411
5.7,1.91860008e-06,5.4580279e-05,0.000158780329,0.000297049697,0.000458653028,0.000632998594
5.75,1.91929201e-06,5.45949364e-05,0.00015882796,0.000297162897,0.00045891866,0.000633871434
5.8,1.91997892e-06,5.46094617e-05,0.000158875006,0.000297274102,0.000459176874,0.00063469061
5.85,1.92066093e-06,5.46238582e-05,0.000158921483,0.000297383386,0.000459428073,0.000635461889
5.9,1.92133811e-06,5.46381289e-05,0.00015896741,0.00029749082,0.00045967263,0.00063619025
5.95,1.92201057e-06,5.46522769e-05,0.000159012801,0.000297596471,0.000459910887,0.000636879993
6.0,1.92267838e-06,5.46663051e-05,0.000159057672,0.000297700402,0.000460143165,0.000637534848
6.05,1.92334163e-06,5.46802162e-05,0.000159102037,0.000297802674,0.000460369759,0.000638158054
6.1,1.92400041e-06,5.46940129e-05,0.000159145912,0.000297903345,0.000460590942,0.000638752443
6.15,1.9246548e-06,5.4707698e-05,0.000159189309,0.000298002471,0.000460806972,0.000639320495
6.2,1.92530487e-06,5.4721274e-05,0.000159232241,0.000298100103,0.000461018087,0.000639864394
6.25,1.9259507e-06,5.47347432e-05,0.000159274722,0.000298196292,0.000461224511,0.000640386073
6.3,1.92659237e-06,5.47481082e-05,0.000159316764,0.000298291085,0.000461426451,0.000640887245
6.35,1.92722995e-06,5.47613712e-05,0.000159358378,0.000298384529,0.000461624105,0.000641369437
6.4,1.92786351e-06,5.47745345e-05,0.000159399575,0.000298476668,0.000461817655,0.000641834015
6.45,1.92849312e-06,5.47876003e-05,0.000159440368,0.000298567542,0.000462007276,0.000642282207
6.5,1.92911885e-06,5.48005707e-05,0.000159480765,0.000298657192,0.000462193129,0.000642715117
6.55,1.92974076e-06,5.48134477e-05,0.000159520778,0.000298745657,0.000462375367,0.000643133742
6.6,1.93035892e-06,5.48262333e-05,0.000159560416,0.000298832974,0.000462554137,0.00064353899
