vds,vb1,vb2,vb3,vb4,vb5,vb6
0.0,-0.0,-0.0,-0.0,-0.0,-0.0,-0.0
0.05,1.84311372e-05,8.0708502e-05,0.000124435954,0.00015664251,0.000179958578,0.000196349782
0.1,3.30577421e-05,0.000157375953,0.000244712773,0.000309182798,0.00035600723,0.00038906043
0.15,4.39834264e-05,0.000230089111,0.000360919406,0.000457703063,0.000528217785,0.000578192691
0.2,5.14368825e-05,0.000298932273,0.000473142248,0.000602283301,0.00069666031,0.000763805963
0.25,5.61652253e-05,0.000363987291,0.000581465187,0.000743001354,0.00086140315,0.000945958322
0.3,5.94745489e-05,0.000425333563,0.000685969641,0.000879932952,0.00102251297,0.00112470655
0.35,6.21387671e-05,0.000483047901,0.000786734566,0.00101315174,0.00118005478,0.00130010616
0.4,6.44317187e-05,0.000537204163,0.000883836447,0.00114272929,0.00133409194,0.00147221142
0.45,6.64776954e-05,0.000587872256,0.000977349252,0.00126873514,0.00148468621,0.00164107535
0.5,6.83470478e-05,0.000635115448,0.00106734433,0.00139123674,0.00163189774,0.00180674975
0.55,7.00840391e-05,0.000678982932,0.00115389017,0.0015102995,0.00177578506,0.0019692852
0.6,7.17183882e-05,0.000719488322,0.00123705198,0.00162598672,0.00191640515,0.00212873109
0.65,7.32710056e-05,0.000756547417,0.00131689075,0.00173835952,0.00205381335,0.00228513559
0.7,7.47571484e-05,0.000789829652,0.00139346144,0.00184747671,0.00218806342,0.00243854571
0.75,7.61882785e-05,0.000818648,0.0014668091,0.00195339456,0.00231920751,0.00258900723
0.8,7.75732172e-05,0.00084250346,0.00153696043,0.00205616633,0.00244729607,0.00273656477
0.85,7.8918892e-05,0.000861873973,0.00160390473,0.0021558415,0.00257237783,0.00288126175
0.9,8.02308385e-05,0.000877808717,0.0016675489,0.00225246427,0.00269449964,0.00302314038
0.95,8.15135462e-05,0.000891249364,0.00172761343,0.00234607083,0.00281370625,0.00316224165
1.0,8.27707037e-05,0.000902865359,0.00178342815,0.00243668403,0.00293003996,0.00329860528
1.05,8.4005377e-05,0.000913110835,0.00183374822,0.00252430268,0.00304353992,0.00343226967
1.1,8.52201398e-05,0.000922297405,0.00187719535,0.00260887933,0.00315424112,0.00356327178
1.15,8.64171727e-05,0.000930644714,0.00191342901,0.00269027305,0.00326217245,0.00369164696
1.2,8.75983384e-05,0.000938312117,0.00194340662,0.00276815014,0.00336735324,0.0038174287
1.25,8.87652393e-05,0.00094541836,0.00196851653,0.00284179924,0.00346978707,0.00394064816
1.3,8.99192633e-05,0.000952054052,0.00198995833,0.00290991739,0.00356944962,0.00406133348
1.35,9.10616202e-05,0.000958289786,0.00200861924,0.00297076681,0.00366626526,0.0041795086
1.4,9.21933699e-05,0.000964181563,0.00202513103,0.00302314817,0.00376005997,0.00429519128
1.45,9.33154462e-05,0.000969774518,0.00203994542,0.00306728515,0.0038504694,0.00440838965
1.5,9.44286753e-05,0.000975105537,0.00205339135,0.0031044518,0.00393677726,0.0045190962
1.55,9.55337919e-05,0.000980205142,0.00206571361,0.0031361226,0.00401772167,0.00462727665
1.6,9.66314518e-05,0.000985098862,0.00207709831,0.00316354002,0.00409154166,0.00473284929
1.65,9.77222424e-05,0.000989808263,0.00208768977,0.00318764508,0.00415668019,0.00483564579
1.7,9.88066922e-05,0.000994351722,0.00209760192,0.00320913041,0.00421274601,0.00493533786
1.75,9.98852781e-05,0.000998745026,0.00210692613,0.00322850689,0.00426060019,0.00503131115
1.8,0.000100958432,0.00100300183,0.00211573672,0.00324615657,0.00430165552,0.00512249849
1.85,0.000102026545,0.00100713403,0.00212409491,0.00326237009,0.00433728863,0.00520732096
1.9,0.000103089975,0.00101115204,0.0021320517,0.00327737255,0.00436862541,0.00528406504
1.95,0.000104149049,0.00101506505,0.00213964999,0.00329134117,0.00439653082,0.0053517136
2.0,0.000105204063,0.00101888118,0.00214692623,0.00330441769,0.00442165882,0.00541044972
2.05,0.000106255294,0.00102260767,0.00215391162,0.00331671705,0.00444450557,0.00546133592
2.1,0.000107302992,0.00102625097,0.00216063305,0.00332833361,0.00446545193,0.00550570555
2.15,0.000108347391,0.00102981689,0.00216711389,0.00333934576,0.00448479441,0.00554478802
2.2,0.000109388706,0.00103331065,0.00217337457,0.00334981926,0.00450276729,0.00557959073
2.25,0.000110427135,0.00103673697,0.00217943302,0.00335980981,0.00451955828,0.00561090337
2.3,0.000111462865,0.00104010014,0.00218530511,0.00336936497,0.00453531979,0.00563933777
2.35,0.000112496067,0.00104340406,0.00219100491,0.00337852565,0.00455017705,0.00566536936
2.4,0.000113526901,0.00104665229,0.00219654497,0.00338732731,0.00456423411,0.00568937107
2.45,0.000114555518,0.00104984808,0.00220193656,0.00339580088,0.00457757827,0.00571163882
2.5,0.000115582057,0.00105299443,0.00220718977,0.00340397347,0.00459028343,0.00573241035
2.55,0.000116606649,0.00105609409,0.00221231374,0.003411869,0.00460241273,0.00575187896
2.6,0.000117629418,0.0010591496,0.00221731675,0.00341950868,0.00461402045,0.00577020361
2.65,0.000118650479,0.00106216332,0.00222220632,0.00342691138,0.00462515363,0.00578751639
2.7,0.000119669942,0.00106513741,0.00222698929,0.00343409398,0.00463585326,0.00580392815
2.75,0.000120687908,0.00106807392,0.00223167195,0.00344107166,0.00464615529,0.00581953271
2.8,0.000121704474,0.00107097472,0.00223626005,0.00344785807,0.00465609142,0.00583441018
2.85,0.000122719733,0.00107384156,0.00224075886,0.0034544656,0.00466568972,0.00584862941
2.9,0.000123733771,0.00107667609,0.00224517328,0.00346090548,0.00467497521,0.00586225004
2.95,0.000124746669,0.00107947985,0.00224950781,0.00346718793,0.00468397022,0.00587532402
3.0,0.000125758506,0.00108225428,0.00225376662,0.0034733223,0.00469269483,0.00588789689
3.05,0.000126769355,0.00108500073,0.00225795359,0.00347931715,0.00470116713,0.00590000878
3.1,0.000127779287,0.00108772047,0.00226207234,0.00348518035,0.00470940346,0.00591169522
3.15,0.000128788368,0.00109041471,0.00226612622,0.00349091916,0.00471741869,0.00592298783
3.2,0.000129796662,0.00109308456,0.00227011837,0.00349654027,0.00472522633,0.00593391487
3.25,0.00013080423,0.0010957311,0.00227405174,0.00350204988,0.00473283874,0.00594450169
3.3,0.000131811128,0.00109835534,0.00227792907,0.00350745374,0.00474026722,0.00595477114
3.35,0.000132817413,0.00110095824,0.00228175296,0.0035127572,0.00474752218,0.00596474387
3.4,0.000133823137,0.00110354068,0.00228552584,0.00351796523,0.0047546132,0.00597443862
3.45,0.00013482835,0.00110610355,0.00228924999,0.00352308251,0.0047615491,0.00598387244
3.5,0.000135833101,0.00110864764,0.00229292757,0.00352811336,0.00476833807,0.00599306091
3.55,0.000136837436,0.00111117373,0.00229656063,0.00353306188,0.00477498772,0.00600201829
3.6,0.000137841398,0.00111368256,0.00230015108,0.00353793189,0.00478150509,0.00601075769
3.65,0.000138845031,0.00111617483,0.00230370075,0.00354272697,0.00478789677,0.00601929115
3.7,0.000139848374,0.00111865121,0.00230721137,0.00354745052,0.00479416889,0.00602762981
3.75,0.000140851467,0.00112111233,0.00231068457,0.00355210573,0.0048003272,0.00603578398
3.8,0.000141854348,0.0011235588,0.00231412191,0.0035566956,0.00480637707,0.00604376321
3.85,0.000142857051,0.0011259912,0.00231752486,0.00356122298,0.00481232356,0.00605157638
3.9,0.000143859612,0.00112841009,0.00232089483,0.00356569057,0.00481817141,0.00605923176
3.95,0.000144862064,0.00113081598,0.00232423315,0.00357010091,0.00482392508,0.00606673708
4.0,0.000145864439,0.0011332094,0.00232754111,0.00357445641,0.00482958877,0.00607409956
4.05,0.000146866767,0.00113559082,0.0023308199,0.00357875938,0.00483516648,0.00608132595
4.1,0.000147869079,0.0011379607,0.00233407069,0.00358301199,0.00484066194,0.00608842261
4.15,0.000148871402,0.0011403195,0.00233729459,0.00358721631,0.00484607872,0.00609539549
4.2,0.000149873763,0.00114266763,0.00234049264,0.00359137432,0.00485142017,0.00610225021
4.25,0.000150876191,0.00114500551,0.00234366585,0.00359548789,0.00485668948,0.00610899206
4.3,0.000151878709,0.00114733353,0.00234681519,0.00359955881,0.00486188968,0.00611562602
4.35,0.000152881342,0.00114965206,0.00234994159,0.00360358879,0.00486702366,0.00612215681
4.4,0.000153884114,0.00115196146,0.00235304592,0.00360757945,0.00487209413,0.0061285889
4.45,0.000154887048,0.00115426209,0.00235612902,0.00361153236,0.00487710371,0.0061349265
4.5,0.000155890166,0.00115655427,0.00235919172,0.00361544898,0.00488205488,0.00614117364
4.55,0.000156893489,0.00115883832,0.00236223478,0.00361933076,0.00488694998,0.0061473341
4.6,0.000157897038,0.00116111456,0.00236525894,0.00362317904,0.00489179129,0.00615341151
4.65,0.000158900832,0.00116338327,0.00236826493,0.00362699512,0.00489658093,0.00615940929
4.7,0.00015990489,0.00116564474,0.00237125342,0.00363078026,0.00490132098,0.00616533071
4.75,0.000160909231,0.00116789925,0.00237422508,0.00363453563,0.00490601338,0.00617117889
4.8,0.000161913873,0.00117014707,0.00237718053,0.00363826238,0.00491066002,0.00617695679
4.85,0.000162918833,0.00117238843,0.00238012039,0.00364196161,0.00491526268,0.00618266724
4.9,0.000163924127,0.0011746236,0.00238304523,0.00364563437,0.00491982308,0.00618831294
4.95,0.000164929772,0.0011768528,0.00238595561,0.00364928166,0.00492434286,0.00619389646
5.0,0.000165935782,0.00117907626,0.00238885207,0.00365290445,0.0049288236,0.00619942027
5.05,0.000166942174,0.00118129421,0.00239173514,0.00365650367,0.00493326681,0.00620488672
5.1,0.000167948961,0.00118350684,0.00239460531,0.00366008021,0.00493767392,0.00621029807
5.15,0.000168956157,0.00118571438,0.00239746305,0.00366363492,0.00494204632,0.00621565646
5.2,0.000169963776,0.00118791701,0.00240030883,0.00366716863,0.00494638535,0.00622096396
5.25,0.000170971831,0.00119011492,0.0024031431,0.00367068213,0.00495069227,0.00622622254
5.3,0.000171980334,0.00119230829,0.00240596628,0.00367417618,0.00495496832,0.0062314341
5.35,0.000172989298,0.00119449731,0.00240877878,0.00367765151,0.00495921466,0.00623660045
5.4,0.000173998734,0.00119668214,0.00241158101,0.00368110881,0.00496343243,0.00624172333
5.45,0.000175008653,0.00119886295,0.00241437333,0.00368454878,0.00496762271,0.00624680441
5.5,0.000176019067,0.00120103989,0.00241715613,0.00368797205,0.00497178654,0.00625184529
5.55,0.000177029987,0.00120321313,0.00241992976,0.00369137926,0.00497592492,0.0062568475
5.6,0.000178041421,0.0012053828,0.00242269455,0.003694771,0.00498003882,0.00626181252
5.65,0.000179053381,0.00120754906,0.00242545085,0.00369814786,0.00498412916,0.00626674177
5.7,0.000180065875,0.00120971203,0.00242819896,0.0037015104,0.00498819684,0.00627163661
5.75,0.000181078913,0.00121187186,0.0024309392,0.00370485915,0.0049922427,0.00627649834
5.8,0.000182092503,0.00121402868,0.00243367186,0.00370819464,0.00499626759,0.00628132823
5.85,0.000183106655,0.00121618261,0.00243639723,0.00371151737,0.00500027228,0.00628612748
5.9,0.000184121375,0.00121833376,0.00243911559,0.00371482781,0.00500425754,0.00629089725
5.95,0.000185136673,0.00122048227,0.0024418272,0.00371812643,0.00500822412,0.00629563866
6.0,0.000186152555,0.00122262824,0.00244453231,0.00372141368,0.00501217271,0.00630035279
6.05,0.00018716903,0.00122477178,0.00244723119,0.00372468999,0.00501610401,0.00630504067
6.1,0.000188186103,0.001226913,0.00244992406,0.00372795577,0.00502001866,0.0063097033
6.15,0.000189203783,0.001229052,0.00245261116,0.00373121144,0.00502391731,0.00631434163
6.2,0.000190222075,0.00123118888,0.00245529271,0.00373445737,0.00502780056,0.00631895659
6.25,0.000191240985,0.00123332373,0.00245796894,0.00373769394,0.00503166899,0.00632354907
6.3,0.00019226052,0.00123545666,0.00246064004,0.00374092152,0.00503552319,0.00632811992
6.35,0.000193280685,0.00123758775,0.00246330623,0.00374414044,0.0050393637,0.00633266996
6.4,0.000194301485,0.00123971708,0.00246596769,0.00374735105,0.00504319103,0.0063372
6.45,0.000195322927,0.00124184475,0.00246862461,0.00375055367,0.00504700571,0.00634171079
6.5,0.000196345015,0.00124397084,0.00247127719,0.00375374861,0.00505080822,0.00634620307
6.55,0.000197367754,0.00124609542,0.00247392559,0.00375693618,0.00505459904,0.00635067756
6.6,0.000198391149,0.00124821858,0.00247656998,0.00376011667,0.00505837862,0.00635513493
