vds,vb1,vb2,vb3,vb4,vb5,vb6
0.0,-0.0,-0.0,-0.0,-0.0,-0.0,-0.0
0.05,2.67439769e-06,1.3623495e-05,2.15117755e-05,2.73719296e-05,3.16956949e-05,3.48379219e-05
0.1,4.75845378e-06,2.66430066e-05,4.24367597e-05,5.4186859e-05,6.28731982e-05,6.92006566e-05
0.15,6.26117059e-06,3.9065642e-05,6.27820503e-05,8.04511831e-05,9.35380121e-05,0.000103092824
0.2,7.20727672e-06,5.08983982e-05,8.25546305e-05,0.000106171199,0.000123695561,0.000136518986
0.25,7.70039153e-06,6.21481626e-05,0.00010176137,0.000131353106,0.000153351193,0.000169483643
0.3,7.96692743e-06,7.28217146e-05,0.000120409029,0.000156003012,0.00018251018,0.00020199124
0.35,8.1556114e-06,8.29257261e-05,0.000138504256,0.000180126928,0.00021117772,0.000234046161
0.4,8.30836555e-06,9.24667604e-05,0.000156053592,0.000203730775,0.000239358939,0.000265652739
0.45,8.43856674e-06,0.000101451269,0.000173063472,0.000226820384,0.000267058889,0.000296815246
0.5,8.55264528e-06,0.000109885582,0.000189540221,0.000249401492,0.00029428255,0.000327537901
0.55,8.65445222e-06,0.00011777589,0.000205490062,0.000271479753,0.000321034834,0.00035782487
0.6,8.74655465e-06,0.000125128201,0.000220919108,0.00029306073,0.000347320581,0.000387680262
0.65,8.83077275e-06,0.000131948243,0.000235833366,0.000314149898,0.000373144562,0.000417108135
0.7,8.90845172e-06,0.000138241252,0.000250238733,0.000334752647,0.000398511482,0.000446112493
0.75,8.98061677e-06,0.000144011442,0.000264140989,0.000354874283,0.000423425975,0.000474697288
0.8,9.04806828e-06,0.000149260732,0.00027754579,0.000374520024,0.000447892612,0.000502866421
0.85,9.1114437e-06,0.000153985691,0.000290458652,0.000393695003,0.000471915893,0.000530623741
0.9,9.17125913e-06,0.000158171902,0.000302884927,0.000412404268,0.000495500255,0.000557973046
0.95,9.22793848e-06,0.000161792998,0.000314829752,0.000430652777,0.000518650071,0.000584918085
1.0,9.28183421e-06,0.00016483961,0.00032629798,0.0004484454,0.000541369646,0.000611462554
1.05,9.3332426e-06,0.000167364488,0.000337294033,0.000465786912,0.000563663221,0.000637610104
1.1,9.3824151e-06,0.000169468318,0.000347821649,0.000482681988,0.000585534975,0.000663364333
1.15,9.42956695e-06,0.000171250999,0.000357883399,0.000499135189,0.000606989019,0.000688728793
1.2,9.47488379e-06,0.000172790038,0.000367479723,0.000515150951,0.0006280294,0.000713706987
1.25,9.51852691e-06,0.000174141201,0.000376606988,0.000530733556,0.000648660098,0.000738302371
1.3,9.56063728e-06,0.000175344305,0.000385253489,0.000545887091,0.000668885023,0.00076251835
1.35,9.60133885e-06,0.000176428227,0.000393391585,0.000560615387,0.000688708015,0.000786358286
1.4,9.6407412e-06,0.000177414372,0.000400964923,0.000574921914,0.000708132836,0.000809825489
1.45,9.67894165e-06,0.000178318965,0.00040787921,0.000588809609,0.000727163165,0.000832923225
1.5,9.71602702e-06,0.000179154556,0.000414026808,0.00060228058,0.000745802587,0.000855654708
1.55,9.75207514e-06,0.000179931041,0.00041935825,0.000615335591,0.000764054578,0.000878023105
1.6,9.78715601e-06,0.000180656344,0.000423925852,0.000627973136,0.000781922484,0.000900031532
1.65,9.82133281e-06,0.00018133691,0.000427846642,0.000640187719,0.000799409484,0.000921683051
1.7,9.85466282e-06,0.000181978045,0.000431246015,0.000651966636,0.000816518546,0.000942980669
1.75,9.88719805e-06,0.000182584168,0.000434230348,0.000663284015,0.000833252344,0.000963927333
1.8,9.91898596e-06,0.000183158999,0.000436882486,0.000674090536,0.000849613141,0.000984525924
1.85,9.95006991e-06,0.000183705696,0.000439265362,0.000684299475,0.000865602595,0.00100477925
1.9,9.98048966e-06,0.000184226965,0.000441426808,0.000693779952,0.000881221449,0.00102469003
1.95,1.00102818e-05,0.000184725139,0.00044340356,0.000702384489,0.000896469009,0.00104426087
2.0,1.00394799e-05,0.000185202248,0.000445224234,0.000710019499,0.00091134225,0.00106349428
2.05,1.00681151e-05,0.000185660062,0.000446911452,0.000716698536,0.000925834269,0.00108239257
2.1,1.00962161e-05,0.000186100142,0.000448483354,0.000722523178,0.000939931543,0.00110095786
2.15,1.01238097e-05,0.000186523864,0.000449954677,0.000727627884,0.000953609134,0.00111919196
2.2,1.01509206e-05,0.000186932453,0.000451337543,0.00073214094,0.000966822637,0.0011370963
2.25,1.01775719e-05,0.000187327,0.000452642033,0.000736169963,0.000979496411,0.00115467168
2.3,1.02037852e-05,0.000187708484,0.000453876614,0.000739800761,0.000991512176,0.00117191807
2.35,1.02295805e-05,0.000188077784,0.000455048462,0.000743100691,0.00100271313,0.0011888341
2.4,1.02549766e-05,0.000188435695,0.000456163712,0.000746122638,0.00101294435,0.00120541636
2.45,1.02799911e-05,0.000188782937,0.000457227645,0.000748908442,0.00102211902,0.00122165813
2.5,1.03046407e-05,0.000189120164,0.00045824484,0.000751491548,0.00103025431,0.00123754737
2.55,1.03289408e-05,0.000189447973,0.000459219295,0.000753898994,0.00103744809,0.0012530632
2.6,1.03529061e-05,0.00018976691,0.000460154516,0.000756152889,0.00104383129,0.00126817021
2.65,1.03765504e-05,0.000190077474,0.000461053598,0.000758271502,0.00104953313,0.00128280979
2.7,1.03998867e-05,0.000190380125,0.000461919285,0.000760270081,0.00105466613,0.00129688932
2.75,1.04229272e-05,0.000190675288,0.000462754022,0.000762161473,0.00105932306,0.00131027533
2.8,1.04456836e-05,0.000190963353,0.000463559996,0.000763956593,0.00106357883,0.0013228052
2.85,1.04681669e-05,0.000191244683,0.000464339171,0.000765664789,0.00106749362,0.00133432945
2.9,1.04903876e-05,0.000191519614,0.000465093319,0.00076729412,0.00107111595,0.00134476727
2.95,1.05123554e-05,0.000191788459,0.000465824043,0.000768851588,0.00107448521,0.00135413187
3.0,1.05340798e-05,0.000192051508,0.000466532798,0.000770343307,0.00107763366,0.00136250977
3.05,1.05555697e-05,0.000192309034,0.00046722091,0.000771774648,0.00108058797,0.00137002138
3.1,1.05768336e-05,0.00019256129,0.000467889589,0.000773150354,0.00108337038,0.00137679035
3.15,1.05978795e-05,0.000192808514,0.000468539944,0.000774474635,0.00108599959,0.00138292832
3.2,1.06187152e-05,0.000193050928,0.000469172995,0.000775751243,0.00108849148,0.00138853028
3.25,1.0639348e-05,0.000193288742,0.000469789678,0.000776983538,0.00109085962,0.00139367486
3.3,1.06597848e-05,0.000193522153,0.000470390859,0.000778174537,0.00109311567,0.00139842664
3.35,1.06800324e-05,0.000193751346,0.000470977339,0.000779326964,0.00109526977,0.00140283856
3.4,1.07000971e-05,0.000193976495,0.000471549861,0.000780443283,0.00109733074,0.00140695424
3.45,1.0719985e-05,0.000194197766,0.000472109114,0.000781525735,0.00109930631,0.00141080981
3.5,1.0739702e-05,0.000194415314,0.00047265574,0.000782576357,0.0011012033,0.00141443547
3.55,1.07592537e-05,0.000194629287,0.000473190338,0.000783597014,0.00110302775,0.0014178566
3.6,1.07786453e-05,0.000194839825,0.000473713467,0.000784589414,0.00110478504,0.0014210947
3.65,1.0797882e-05,0.000195047059,0.000474225651,0.000785555125,0.00110647998,0.00142416817
3.7,1.08169688e-05,0.000195251117,0.000474727381,0.000786495592,0.00110811687,0.00142709278
3.75,1.08359102e-05,0.000195452116,0.000475219116,0.00078741215,0.0011096996,0.00142988219
3.8,1.08547109e-05,0.00019565017,0.00047570129,0.000788306033,0.00111123167,0.00143254831
3.85,1.08733752e-05,0.000195845388,0.00047617431,0.000789178386,0.00111271628,0.00143510153
3.9,1.08919072e-05,0.000196037871,0.000476638561,0.000790030273,0.00111415632,0.00143755103
3.95,1.0910311e-05,0.000196227719,0.000477094404,0.000790862684,0.00111555443,0.00143990489
4.0,1.09285903e-05,0.000196415024,0.000477542183,0.000791676544,0.00111691303,0.00144217031
4.05,1.0946749e-05,0.000196599875,0.000477982221,0.000792472716,0.00111823434,0.00144435373
4.1,1.09647905e-05,0.000196782358,0.000478414826,0.000793252008,0.00111952041,0.00144646089
4.15,1.09827184e-05,0.000196962554,0.000478840287,0.000794015178,0.00112077312,0.00144849697
4.2,1.10005358e-05,0.000197140541,0.000479258881,0.000794762937,0.00112199421,0.00145046663
4.25,1.10182459e-05,0.000197316392,0.000479670871,0.000795495955,0.00112318529,0.00145237411
4.3,1.1035852e-05,0.00019749018,0.000480076504,0.000796214861,0.00112434787,0.00145422326
4.35,1.10533568e-05,0.000197661972,0.000480476019,0.00079692025,0.00112548333,0.00145601758
4.4,1.10707632e-05,0.000197831833,0.000480869639,0.000797612682,0.00112659299,0.00145776027
4.45,1.10880741e-05,0.000197999826,0.000481257582,0.000798292687,0.00112767804,0.00145945427
4.5,1.11052919e-05,0.000198166012,0.00048164005,0.000798960766,0.00112873963,0.00146110228
4.55,1.11224194e-05,0.000198330447,0.000482017241,0.000799617394,0.00112977881,0.00146270677
4.6,1.1139459e-05,0.000198493187,0.000482389339,0.000800263021,0.0011307966,0.00146427006
4.65,1.1156413e-05,0.000198654285,0.000482756524,0.000800898075,0.00113179392,0.00146579426
4.7,1.11732837e-05,0.000198813792,0.000483118967,0.000801522962,0.00113277165,0.00146728135
4.75,1.11900735e-05,0.000198971757,0.000483476829,0.000802138066,0.00113373064,0.00146873316
4.8,1.12067843e-05,0.000199128227,0.000483830267,0.000802743756,0.00113467166,0.0014701514
4.85,1.12234185e-05,0.000199283247,0.000484179431,0.000803340381,0.00113559545,0.00147153765
4.9,1.12399778e-05,0.000199436862,0.000484524462,0.000803928273,0.00113650272,0.00147289341
4.95,1.12564644e-05,0.000199589112,0.000484865499,0.000804507751,0.00113739414,0.00147422008
5.0,1.127288e-05,0.000199740039,0.000485202673,0.000805079117,0.00113827032,0.00147551895
5.05,1.12892265e-05,0.000199889681,0.000485536109,0.000805642662,0.00113913187,0.00147679126
5.1,1.13055057e-05,0.000200038076,0.000485865929,0.00080619866,0.00113997936,0.00147803816
5.15,1.13217193e-05,0.000200185259,0.000486192249,0.000806747377,0.00114081331,0.00147926074
5.2,1.13378689e-05,0.000200331266,0.000486515181,0.000807289065,0.00114163426,0.00148046003
5.25,1.13539561e-05,0.00020047613,0.000486834831,0.000807823966,0.00114244267,0.001481637
5.3,1.13699826e-05,0.000200619884,0.000487151302,0.000808352313,0.00114323903,0.00148279255
5.35,1.13859498e-05,0.000200762559,0.000487464694,0.000808874325,0.00114402376,0.00148392756
5.4,1.14018591e-05,0.000200904184,0.000487775102,0.000809390217,0.0011447973,0.00148504285
5.45,1.14177121e-05,0.00020104479,0.000488082617,0.000809900193,0.00114556005,0.0014861392
5.5,1.143351e-05,0.000201184404,0.000488387328,0.000810404447,0.00114631239,0.00148721735
5.55,1.14492542e-05,0.000201323053,0.000488689319,0.000810903167,0.00114705469,0.00148827799
5.6,1.1464946e-05,0.000201460763,0.000488988673,0.000811396534,0.0011477873,0.00148932181
5.65,1.14805867e-05,0.00020159756,0.000489285467,0.000811884721,0.00114851057,0.00149034942
5.7,1.14961775e-05,0.000201733469,0.000489579779,0.000812367894,0.00114922481,0.00149136145
5.75,1.15117196e-05,0.000201868513,0.00048987168,0.000812846212,0.00114993033,0.00149235846
5.8,1.1527214e-05,0.000202002714,0.000490161242,0.000813319829,0.00115062743,0.00149334101
5.85,1.1542662e-05,0.000202136096,0.000490448532,0.000813788894,0.00115131639,0.00149430962
5.9,1.15580647e-05,0.000202268678,0.000490733617,0.000814253547,0.00115199749,0.00149526479
5.95,1.1573423e-05,0.000202400483,0.000491016559,0.000814713927,0.00115267098,0.00149620701
6.0,1.1588738e-05,0.000202531531,0.00049129742,0.000815170164,0.00115333712,0.00149713672
6.05,1.16040108e-05,0.000202661839,0.000491576258,0.000815622385,0.00115399614,0.00149805438
6.1,1.16192422e-05,0.000202791429,0.000491853131,0.000816070713,0.00115464829,0.0014989604
6.15,1.16344333e-05,0.000202920316,0.000492128093,0.000816515264,0.00115529378,0.00149985518
6.2,1.16495849e-05,0.00020304852,0.000492401198,0.000816956153,0.00115593282,0.0015007391
6.25,1.16646979e-05,0.000203176058,0.000492672496,0.000817393489,0.00115656562,0.00150161254
6.3,1.16797732e-05,0.000203302945,0.000492942038,0.000817827377,0.00115719238,0.00150247585
6.35,1.16948117e-05,0.000203429198,0.000493209872,0.000818257919,0.00115781328,0.00150332937
6.4,1.17098141e-05,0.000203554832,0.000493476043,0.000818685212,0.00115842852,0.00150417342
6.45,1.17247814e-05,0.000203679863,0.000493740597,0.000819109351,0.00115903827,0.00150500833
6.5,1.17397142e-05,0.000203804305,0.000494003577,0.000819530429,0.00115964269,0.00150583438
6.55,1.17546132e-05,0.000203928173,0.000494265025,0.000819948531,0.00116024195,0.00150665186
6.6,1.17694794e-05,0.000204051479,0.000494524981,0.000820363745,0.00116083621,0.00150746107
