vds,vb1,vb2,vb3,vb4,vb5,vb6
0.0,-0.0,-0.0,-0.0,-0.0,-0.0,-0.0
0.05,1.59694892e-05,4.47781305e-05,6.44955123e-05,7.81847704e-05,8.75834099e-05,9.38855287e-05
0.1,3.0007686e-05,8.75479211e-05,0.000127054501,0.000154561401,0.00017350989,0.000186268389
0.15,4.22582162e-05,0.000128452479,0.000187816282,0.000229264488,0.000257909599,0.000277274965
0.2,5.27821573e-05,0.000167550822,0.0002468362,0.000302344801,0.000340828989,0.000366948023
0.25,6.16226326e-05,0.000204880368,0.000304148113,0.000373831761,0.000422293282,0.000455309186
0.3,6.88267961e-05,0.00024047264,0.000359780078,0.000443749128,0.000502322148,0.00054237461
0.35,7.44711587e-05,0.000274357222,0.000413758301,0.000512118938,0.000580933648,0.000628158926
0.4,7.87317726e-05,0.000306562782,0.000466108142,0.000578962505,0.000658145225,0.000712676225
0.45,8.19828211e-05,0.000337117351,0.000516854367,0.000644300674,0.000733973955,0.000795940315
0.5,8.46453547e-05,0.000366048424,0.000566021231,0.000708153895,0.000808436621,0.00087796478
0.55,8.69546837e-05,0.000393383023,0.000613632504,0.00077054224,0.000881549728,0.000958763008
0.6,8.90196187e-05,0.000419147748,0.000659711481,0.000831485424,0.000953329515,0.00103834819
0.65,9.0901731e-05,0.000443368827,0.000704281004,0.000891002806,0.00102379196,0.00111673333
0.7,9.26413953e-05,0.000466072128,0.000747363459,0.000949113399,0.00109295279,0.00119393124
0.75,9.42669853e-05,0.000487283022,0.00078898079,0.00100583588,0.00116082747,0.00126995456
0.8,9.57992721e-05,0.00050702573,0.000829154494,0.00106118859,0.00122743122,0.00134481574
0.85,9.72539196e-05,0.000525321014,0.000867905611,0.00111518954,0.00129277905,0.00141852706
0.9,9.86430249e-05,0.000542178983,0.000905254691,0.00116785643,0.00135688568,0.00149110062
0.95,9.99761184e-05,0.000557581802,0.000941221731,0.00121920662,0.00141976564,0.00156254836
1.0,0.000101260837,0.000571467943,0.000975826026,0.00126925717,0.00148143321,0.00163288204
1.05,0.00010250339,0.000583784363,0.00100908589,0.00131802481,0.00154190245,0.00170211326
1.1,0.000103708894,0.000594604163,0.00104101804,0.00136552592,0.00160118719,0.00177025346
1.15,0.00010488161,0.000604131335,0.00107163634,0.00141177654,0.00165930104,0.00183731392
1.2,0.000106025126,0.000612601994,0.00110094901,0.00145679231,0.0017162574,0.00190330575
1.25,0.000107142487,0.000620221328,0.00112895238,0.00150058842,0.00177206943,0.00196823991
1.3,0.000108236301,0.000627150843,0.00115561713,0.00154317948,0.00182675009,0.00203212722
1.35,0.000109308818,0.000633514424,0.00118086083,0.00158457933,0.0018803121,0.00209497832
1.4,0.00011036199,0.00063940725,0.0012045103,0.00162480066,0.00193276791,0.00215680373
1.45,0.000111397523,0.000644903279,0.00122630472,0.00166385438,0.00198412977,0.0022176138
1.5,0.000112416917,0.000650060795,0.00124602251,0.00170174834,0.0020344096,0.00227741873
1.55,0.000113421494,0.000654926399,0.00126364735,0.00173848488,0.00208361901,0.00233622857
1.6,0.000114412428,0.000659537856,0.00127936963,0.00177405604,0.00213176918,0.00239405322
1.65,0.000115390766,0.00066392616,0.0012934657,0.00180843384,0.00217887081,0.00245090241
1.7,0.000116357444,0.000668117036,0.00130620515,0.00184155162,0.00222493385,0.00250678573
1.75,0.000117313302,0.000672132058,0.00131781677,0.00187327234,0.0022699672,0.00256171255
1.8,0.000118259099,0.000675989486,0.00132848528,0.0019033537,0.00231397818,0.00261569209
1.85,0.000119195521,0.00067970491,0.00133835776,0.00193146041,0.00235697149,0.00266873332
1.9,0.000120123189,0.000683291738,0.00134755154,0.00195728691,0.00239894747,0.00272084496
1.95,0.000121042671,0.000686761588,0.00135616091,0.00198072155,0.00243989881,0.00277203541
2.0,0.000121954484,0.000690124585,0.00136426242,0.00200188198,0.00247980449,0.00282231266
2.05,0.0001228591,0.000693389611,0.0013719189,0.00202101957,0.00251861841,0.00287168413
2.1,0.000123756955,0.000696564497,0.0013791824,0.00203841715,0.00255624961,0.00292015645
2.15,0.000124648448,0.00069965618,0.00138609653,0.00205433532,0.00259253248,0.00296773508
2.2,0.000125533948,0.000702670838,0.0013926981,0.00206899584,0.00262719964,0.00301442371
2.25,0.000126413795,0.000705613993,0.00139901847,0.00208258166,0.00265989936,0.00306022313
2.3,0.000127288306,0.000708490604,0.00140508457,0.00209524239,0.00269030136,0.00310512949
2.35,0.000128157773,0.000711305138,0.00141091967,0.00210710048,0.00271823874,0.00314913105
2.4,0.000129022469,0.000714061634,0.00141654401,0.00211825677,0.00274375857,0.00319220247
2.45,0.000129882648,0.000716763759,0.00142197531,0.00212879488,0.00276705864,0.00323429481
2.5,0.000130738548,0.000719414849,0.00142722916,0.00213878476,0.00278839652,0.00327531894
2.55,0.000131590389,0.00072201795,0.00143231936,0.00214828538,0.00280802952,0.00331512136
2.6,0.000132438381,0.000724575851,0.00143725818,0.00215734687,0.00282618844,0.00335346072
2.65,0.000133282717,0.000727091112,0.00144205655,0.00216601215,0.00284307086,0.00339001207
2.7,0.000134123581,0.000729566089,0.00144672428,0.00217431821,0.00285884273,0.00342443465
2.75,0.000134961146,0.000732002956,0.00145127021,0.00218229717,0.00287364269,0.00345648842
2.8,0.000135795573,0.000734403723,0.00145570231,0.00218997706,0.00288758668,0.00348611294
2.85,0.000136627017,0.000736770254,0.0014600278,0.0021973825,0.0029007721,0.00351341277
2.9,0.000137455622,0.000739104278,0.00146425326,0.00220453521,0.00291328127,0.00353858851
2.95,0.000138281526,0.000741407407,0.00146838467,0.00221145446,0.00292518418,0.00356187246
3.0,0.000139104858,0.000743681141,0.00147242752,0.00221815741,0.00293654076,0.00358349078
3.05,0.000139925741,0.000745926884,0.00147638683,0.00222465942,0.00294740267,0.00360364718
3.1,0.000140744292,0.000748145948,0.00148026723,0.00223097426,0.00295781468,0.0036225187
3.15,0.000141560622,0.000750339563,0.00148407297,0.00223711439,0.00296781584,0.00364025678
3.2,0.000142374837,0.000752508883,0.001487808,0.00224309103,0.00297744038,0.00365699027
3.25,0.000143187038,0.000754654996,0.00149147595,0.00224891441,0.0029867185,0.00367282885
3.3,0.000143997319,0.000756778922,0.00149508022,0.00225459381,0.00299567691,0.00368786617
3.35,0.000144805773,0.000758881626,0.00149862394,0.00226013773,0.00300433941,0.00370218252
3.4,0.000145612487,0.000760964018,0.00150211007,0.00226555394,0.00301272725,0.00371584711
3.45,0.000146417543,0.000763026957,0.00150554133,0.00227084958,0.00302085947,0.0037289199
3.5,0.000147221022,0.000765071258,0.00150892029,0.00227603123,0.00302875326,0.00374145314
3.55,0.000148022999,0.00076709769,0.00151224934,0.00228110496,0.0030364241,0.00375349259
3.6,0.000148823547,0.000769106987,0.00151553075,0.00228607637,0.00304388608,0.00376507851
3.65,0.000149622737,0.00077109984,0.00151876662,0.00229095067,0.00305115196,0.0037762465
3.7,0.000150420634,0.000773076911,0.00152195895,0.00229573271,0.00305823343,0.00378702817
3.75,0.000151217303,0.000775038825,0.00152510962,0.00230042697,0.00306514115,0.00379745175
3.8,0.000152012806,0.00077698618,0.0015282204,0.00230503766,0.00307188493,0.00380754248
3.85,0.000152807201,0.000778919545,0.00153129297,0.00230956871,0.00307847376,0.00381732308
3.9,0.000153600546,0.000780839461,0.0015343289,0.00231402378,0.00308491595,0.00382681402
3.95,0.000154392894,0.000782746446,0.00153732971,0.00231840633,0.00309121918,0.00383603385
4.0,0.000155184298,0.000784640994,0.00154029681,0.00232271959,0.00309739057,0.00384499941
4.05,0.000155974808,0.000786523576,0.00154323156,0.0023269666,0.00310343671,0.00385372603
4.1,0.000156764473,0.000788394643,0.00154613523,0.00233115024,0.00310936375,0.00386222773
4.15,0.000157553339,0.000790254628,0.00154900905,0.0023352732,0.00311517742,0.00387051735
4.2,0.000158341452,0.000792103942,0.00155185418,0.00233933805,0.00312088306,0.00387860669
4.25,0.000159128855,0.000793942981,0.00155467172,0.00234334719,0.00312648568,0.00388650659
4.3,0.000159915588,0.000795772125,0.00155746273,0.00234730291,0.00313198997,0.00389422708
4.35,0.000160701694,0.000797591736,0.00156022822,0.00235120739,0.00313740033,0.00390177745
4.4,0.000161487209,0.000799402163,0.00156296914,0.00235506267,0.00314272089,0.00390916629
4.45,0.000162272172,0.00080120374,0.0015656864,0.00235887071,0.00314795557,0.00391640159
4.5,0.000163056619,0.000802996788,0.0015683809,0.00236263337,0.00315310802,0.0039234908
4.55,0.000163840585,0.000804781615,0.00157105345,0.00236635241,0.00315818172,0.00393044087
4.6,0.000164624102,0.000806558517,0.00157370487,0.00237002951,0.00316317995,0.00393725829
4.65,0.000165407205,0.000808327779,0.00157633593,0.00237366627,0.00316810581,0.00394394913
4.7,0.000166189924,0.000810089675,0.00157894735,0.00237726423,0.00317296225,0.00395051909
4.75,0.000166972289,0.000811844467,0.00158153985,0.00238082483,0.00317775204,0.00395697354
4.8,0.00016775433,0.000813592409,0.00158411409,0.00238434948,0.00318247785,0.00396331751
4.85,0.000168536076,0.000815333745,0.00158667074,0.00238783951,0.00318714218,0.00396955576
4.9,0.000169317553,0.00081706871,0.0015892104,0.00239129617,0.00319174743,0.00397569275
4.95,0.000170098788,0.000818797529,0.00159173367,0.0023947207,0.00319629587,0.00398173273
5.0,0.000170879807,0.00082052042,0.00159424114,0.00239811426,0.00320078968,0.0039876797
5.05,0.000171660635,0.000822237593,0.00159673335,0.00240147796,0.00320523094,0.00399353744
5.1,0.000172441297,0.000823949251,0.00159921083,0.00240481287,0.0032096216,0.00399930956
5.15,0.000173221814,0.000825655589,0.00160167408,0.00240812002,0.00321396357,0.00400499947
5.2,0.00017400221,0.000827356795,0.00160412361,0.00241140038,0.00321825863,0.0040106104
5.25,0.000174782507,0.00082905305,0.00160655988,0.00241465491,0.00322250852,0.00401614544
5.3,0.000175562726,0.00083074453,0.00160898334,0.00241788451,0.00322671488,0.00402160752
5.35,0.000176342888,0.000832431403,0.00161139444,0.00242109004,0.00323087929,0.00402699944
5.4,0.000177123012,0.000834113834,0.00161379358,0.00242427234,0.00323500326,0.00403232385
5.45,0.000177903118,0.00083579198,0.00161618119,0.00242743221,0.00323908824,0.0040375833
5.5,0.000178683225,0.000837465992,0.00161855764,0.00243057043,0.0032431356,0.00404278021
5.55,0.00017946335,0.000839136019,0.00162092331,0.00243368773,0.00324714669,0.0040479169
5.6,0.000180243512,0.000840802203,0.00162327857,0.00243678484,0.00325112278,0.00405299559
5.65,0.000181023727,0.00084246468,0.00162562377,0.00243986242,0.0032550651,0.00405801838
5.7,0.000181804013,0.000844123585,0.00162795924,0.00244292116,0.00325897481,0.00406298731
5.75,0.000182584385,0.000845779045,0.00163028531,0.00244596167,0.00326285305,0.00406790432
5.8,0.000183364858,0.000847431184,0.00163260229,0.00244898458,0.0032667009,0.00407277126
5.85,0.000184145449,0.000849080124,0.00163491048,0.00245199047,0.00327051941,0.00407758992
5.9,0.000184926172,0.00085072598,0.00163721019,0.00245497991,0.00327430958,0.00408236201
5.95,0.000185707041,0.000852368865,0.00163950168,0.00245795346,0.00327807238,0.00408708916
6.0,0.000186488071,0.000854008887,0.00164178524,0.00246091163,0.00328180873,0.00409177294
6.05,0.000187269274,0.000855646153,0.00164406113,0.00246385494,0.00328551952,0.00409641487
6.1,0.000188050664,0.000857280765,0.00164632959,0.00246678387,0.00328920562,0.0041010164
6.15,0.000188832254,0.000858912821,0.00164859089,0.00246969891,0.00329286784,0.00410557891
6.2,0.000189614057,0.000860542418,0.00165084525,0.0024726005,0.003296507,0.00411010376
6.25,0.000190396083,0.000862169647,0.00165309291,0.0024754891,0.00330012386,0.00411459221
6.3,0.000191178346,0.0008637946,0.00165533408,0.00247836512,0.00330371915,0.00411904552
6.35,0.000191960856,0.000865417363,0.00165756899,0.00248122897,0.0033072936,0.00412346487
6.4,0.000192743625,0.00086703802,0.00165979783,0.00248408106,0.00331084788,0.0041278514
6.45,0.000193526663,0.000868656654,0.00166202082,0.00248692176,0.00331438266,0.00413220623
6.5,0.000194309981,0.000870273344,0.00166423815,0.00248975145,0.00331789859,0.00413653041
6.55,0.000195093589,0.000871888167,0.00166645,0.00249257049,0.00332139627,0.00414082496
6.6,0.000195877498,0.000873501198,0.00166865656,0.00249537921,0.00332487631,0.00414509087
