vds,vb1,vb2,vb3,vb4,vb5,vb6
0.0,-0.0,-0.0,-0.0,-0.0,-0.0,-0.0
0.05,3.80776991e-07,1.11732749e-06,1.63862691e-06,2.01886653e-06,2.30133946e-06,2.5135455e-06
0.1,7.08359608e-07,2.18425531e-06,3.23150002e-06,3.99620149e-06,4.56485068e-06,4.9924826e-06
0.15,9.91871999e-07,3.20989117e-06,4.78769235e-06,5.94104454e-06,6.7995459e-06,7.44580196e-06
0.2,1.23377968e-06,4.19666991e-06,6.30960427e-06,7.85576301e-06,9.00776532e-06,9.8758223e-06
0.25,1.43490638e-06,5.14535091e-06,7.79796099e-06,9.7410493e-06,1.11901744e-05,1.22831878e-05
0.3,1.59574522e-06,6.05627213e-06,9.2530665e-06,1.15971749e-05,1.33470179e-05,1.46681221e-05
0.35,1.71696794e-06,6.92966483e-06,1.06751183e-05,1.34243052e-05,1.54784348e-05,1.70307431e-05
0.4,1.80024855e-06,7.76573255e-06,1.20642865e-05,1.52225783e-05,1.75845367e-05,1.93711417e-05
0.45,1.85076166e-06,8.56467102e-06,1.34207334e-05,1.69921247e-05,1.96654283e-05,2.16894018e-05
0.5,1.87995222e-06,9.32667313e-06,1.47446187e-05,1.87330729e-05,2.17212119e-05,2.39856054e-05
0.55,1.89949957e-06,1.00519303e-05,1.60361004e-05,2.04455499e-05,2.37519891e-05,2.62598335e-05
0.6,1.91492227e-06,1.07406327e-05,1.72953358e-05,2.21296819e-05,2.57578606e-05,2.85121666e-05
0.65,1.92809389e-06,1.13929698e-05,1.85224809e-05,2.37855944e-05,2.77389265e-05,3.07426848e-05
0.7,1.93974639e-06,1.20091304e-05,1.97176907e-05,2.5413412e-05,2.96952867e-05,3.2951468e-05
0.75,1.95025146e-06,1.25893027e-05,2.08811192e-05,2.70132588e-05,3.16270401e-05,3.51385954e-05
0.8,1.95983796e-06,1.3133675e-05,2.20129196e-05,2.85852581e-05,3.35342854e-05,3.7304146e-05
0.85,1.96866402e-06,1.36424364e-05,2.31132438e-05,3.01295322e-05,3.54171206e-05,3.94481983e-05
0.9,1.97684657e-06,1.41157775e-05,2.41822432e-05,3.16462032e-05,3.72756434e-05,4.15708306e-05
0.95,1.98447582e-06,1.45538928e-05,2.52200677e-05,3.31353919e-05,3.91099507e-05,4.36721207e-05
1.0,1.99162346e-06,1.49569836e-05,2.62268667e-05,3.45972189e-05,4.09201391e-05,4.57521461e-05
1.05,1.99834765e-06,1.53252648e-05,2.72027883e-05,3.60318037e-05,4.27063045e-05,4.78109837e-05
1.1,2.00469638e-06,1.56589772e-05,2.81479801e-05,3.74392654e-05,4.44685425e-05,4.98487102e-05
1.15,2.01070977e-06,1.59584145e-05,2.90625884e-05,3.88197222e-05,4.6206948e-05,5.18654021e-05
1.2,2.01642177e-06,1.62239822e-05,2.99467587e-05,4.01732918e-05,4.79216155e-05,5.38611352e-05
1.25,2.02186136e-06,1.64563326e-05,3.08006356e-05,4.1500091e-05,4.9612639e-05,5.58359851e-05
1.3,2.0270535e-06,1.66566581e-05,3.16243629e-05,4.28002361e-05,5.1280112e-05,5.7790027e-05
1.35,2.03201985e-06,1.68272088e-05,3.24180832e-05,4.40738425e-05,5.29241274e-05,5.97233359e-05
1.4,2.03677932e-06,1.6971752e-05,3.31819385e-05,4.53210252e-05,5.45447777e-05,6.16359861e-05
1.45,2.04134855e-06,1.7095175e-05,3.39160698e-05,4.65418984e-05,5.6142155e-05,6.3528052e-05
1.5,2.04574222e-06,1.72022212e-05,3.46206172e-05,4.77365755e-05,5.77163508e-05,6.53996071e-05
1.55,2.04997337e-06,1.7296623e-05,3.52957195e-05,4.89051694e-05,5.92674561e-05,6.7250725e-05
1.6,2.05405367e-06,1.7381069e-05,3.5941515e-05,5.00477923e-05,6.07955615e-05,6.90814787e-05
1.65,2.05799352e-06,1.74574842e-05,3.65581406e-05,5.11645557e-05,6.2300757e-05,7.08919411e-05
1.7,2.06180233e-06,1.75272801e-05,3.71457317e-05,5.22555705e-05,6.37831323e-05,7.26821844e-05
1.75,2.06548856e-06,1.75915217e-05,3.77044224e-05,5.33209467e-05,6.52427765e-05,7.44522807e-05
1.8,2.06905989e-06,1.76510335e-05,3.82343445e-05,5.43607939e-05,6.66797782e-05,7.62023017e-05
1.85,2.07252331e-06,1.77064674e-05,3.87356266e-05,5.53752209e-05,6.80942257e-05,7.79323187e-05
1.9,2.07588518e-06,1.77583486e-05,3.92083928e-05,5.63643357e-05,6.94862066e-05,7.96424028e-05
1.95,2.07915131e-06,1.78071062e-05,3.96527596e-05,5.73282458e-05,7.08558083e-05,8.13326247e-05
2.0,2.08232704e-06,1.78530958e-05,4.00688321e-05,5.82670576e-05,7.22031175e-05,8.30030547e-05
2.05,2.08541729e-06,1.78966155e-05,4.04566971e-05,5.91808771e-05,7.35282205e-05,8.46537627e-05
2.1,2.08842655e-06,1.79379174e-05,4.08164199e-05,6.00698091e-05,7.48312032e-05,8.62848185e-05
2.15,2.09135902e-06,1.7977217e-05,4.11480584e-05,6.09339579e-05,7.61121511e-05,8.78962914e-05
2.2,2.09421855e-06,1.80146996e-05,4.14517457e-05,6.17734263e-05,7.7371149e-05,8.94882504e-05
2.25,2.09700873e-06,1.80505261e-05,4.17279214e-05,6.25883164e-05,7.86082815e-05,9.10607642e-05
2.3,2.09973288e-06,1.80848367e-05,4.19776972e-05,6.33787286e-05,7.98236325e-05,9.26139011e-05
2.35,2.10239411e-06,1.81177546e-05,4.22030787e-05,6.41447619e-05,8.10172855e-05,9.41477292e-05
2.4,2.1049953e-06,1.81493887e-05,4.24067549e-05,6.4886513e-05,8.21893237e-05,9.56623161e-05
2.45,2.10753917e-06,1.81798353e-05,4.25916166e-05,6.5604076e-05,8.33398296e-05,9.71577293e-05
2.5,2.11002823e-06,1.82091806e-05,4.27603634e-05,6.62975415e-05,8.44688853e-05,9.86340358e-05
2.55,2.11246486e-06,1.82375015e-05,4.29153308e-05,6.69669949e-05,8.55765723e-05,0.000100091302
2.6,2.11485128e-06,1.82648672e-05,4.30584686e-05,6.76125143e-05,8.66629717e-05,0.000101529595
2.65,2.11718959e-06,1.82913401e-05,4.31913836e-05,6.82341672e-05,8.7728164e-05,0.000102948981
2.7,2.11948175e-06,1.83169768e-05,4.33153984e-05,6.88320046e-05,8.87722292e-05,0.000104349525
2.75,2.12172961e-06,1.83418286e-05,4.34316062e-05,6.94060526e-05,8.97952465e-05,0.000105731292
2.8,2.12393493e-06,1.83659422e-05,4.35409172e-05,6.99562965e-05,9.07972946e-05,0.000107094349
2.85,2.12609937e-06,1.83893604e-05,4.36440949e-05,7.0482658e-05,9.17784516e-05,0.000108438759
2.9,2.12822447e-06,1.84121222e-05,4.3741785e-05,7.09849555e-05,9.27387946e-05,0.000109764587
2.95,2.13031173e-06,1.84342638e-05,4.38345377e-05,7.1462849e-05,9.36783998e-05,0.000111071898
3.0,2.13236256e-06,1.84558181e-05,4.39228252e-05,7.19157721e-05,9.45973426e-05,0.000112360755
3.05,2.13437827e-06,1.84768157e-05,4.40070559e-05,7.23428945e-05,9.54956969e-05,0.000113631221
3.1,2.13636013e-06,1.8497285e-05,4.40875848e-05,7.27432121e-05,9.63735352e-05,0.00011488336
3.15,2.13830935e-06,1.85172521e-05,4.41647225e-05,7.31158797e-05,9.72309283e-05,0.000116117235
3.2,2.14022707e-06,1.85367414e-05,4.42387424e-05,7.34607226e-05,9.80679446e-05,0.000117332908
3.25,2.14211438e-06,1.85557755e-05,4.43098863e-05,7.37785951e-05,9.88846493e-05,0.000118530441
3.3,2.1439723e-06,1.85743756e-05,4.43783688e-05,7.40713041e-05,9.9681104e-05,0.000119709897
3.35,2.14580184e-06,1.85925614e-05,4.44443817e-05,7.43412138e-05,0.000100457365,0.000120871335
3.4,2.14760394e-06,1.86103513e-05,4.45080966e-05,7.45908303e-05,0.00010121348,0.000122014817
3.45,2.14937948e-06,1.86277628e-05,4.45696681e-05,7.48225334e-05,0.000101949488,0.000123140405
3.5,2.15112935e-06,1.86448119e-05,4.46292356e-05,7.50384545e-05,0.000102665412,0.000124248157
3.55,2.15285435e-06,1.8661514e-05,4.46869254e-05,7.5240448e-05,0.000103361252,0.000125338133
3.6,2.15455527e-06,1.86778834e-05,4.47428524e-05,7.54301052e-05,0.000104036979,0.000126410393
3.65,2.15623287e-06,1.86939338e-05,4.47971211e-05,7.56087858e-05,0.000104692511,0.000127464995
3.7,2.15788787e-06,1.87096777e-05,4.48498274e-05,7.57776523e-05,0.000105327692,0.000128501997
3.75,2.15952095e-06,1.87251273e-05,4.49010588e-05,7.59377009e-05,0.000105942252,0.000129521456
3.8,2.16113279e-06,1.87402941e-05,4.49508959e-05,7.60897897e-05,0.000106535749,0.000130523427
3.85,2.16272401e-06,1.87551888e-05,4.4999413e-05,7.6234661e-05,0.000107107488,0.000131507967
3.9,2.16429524e-06,1.87698216e-05,4.50466786e-05,7.63729603e-05,0.000107656436,0.000132475129
3.95,2.16584704e-06,1.87842022e-05,4.50927562e-05,7.6505252e-05,0.000108181181,0.000133424966
4.0,2.16737999e-06,1.87983399e-05,4.51377045e-05,7.66320319e-05,0.000108680014,0.000134357528
4.05,2.16889463e-06,1.88122435e-05,4.51815781e-05,7.67537376e-05,0.000109151254,0.000135272864
4.1,2.17039147e-06,1.88259212e-05,4.52244281e-05,7.68707573e-05,0.00010959375,0.000136171019
4.15,2.17187102e-06,1.88393811e-05,4.52663017e-05,7.69834365e-05,0.000110007319,0.000137052035
4.2,2.17333375e-06,1.88526306e-05,4.53072435e-05,7.70920844e-05,0.000110392848,0.000137915949
4.25,2.17478014e-06,1.88656769e-05,4.53472947e-05,7.71969783e-05,0.000110752052,0.000138762791
4.3,2.17621063e-06,1.8878527e-05,4.53864945e-05,7.72983682e-05,0.000111087095,0.000139592582
4.35,2.17762564e-06,1.88911874e-05,4.54248791e-05,7.73964801e-05,0.000111400269,0.000140405331
4.4,2.17902559e-06,1.89036644e-05,4.54624831e-05,7.74915188e-05,0.000111693785,0.00014120103
4.45,2.18041088e-06,1.8915964e-05,4.54993386e-05,7.75836708e-05,0.000111969673,0.000141979644
4.5,2.18178189e-06,1.89280919e-05,4.55354761e-05,7.76731062e-05,0.000112229745,0.000142741106
4.55,2.18313901e-06,1.89400535e-05,4.55709245e-05,7.77599806e-05,0.000112475597,0.000143485297
4.6,2.18448258e-06,1.89518543e-05,4.56057108e-05,7.78444367e-05,0.000112708624,0.000144212021
4.65,2.18581295e-06,1.89634991e-05,4.56398607e-05,7.79266058e-05,0.000112930046,0.000144920975
4.7,2.18713045e-06,1.89749928e-05,4.56733985e-05,7.80066089e-05,0.000113140926,0.000145611692
4.75,2.18843541e-06,1.89863401e-05,4.57063474e-05,7.80845578e-05,0.000113342198,0.000146283478
4.8,2.18972815e-06,1.89975454e-05,4.57387292e-05,7.81605561e-05,0.000113534681,0.000146935323
4.85,2.19100896e-06,1.90086129e-05,4.57705646e-05,7.82346997e-05,0.000113719097,0.000147565827
4.9,2.19227813e-06,1.90195469e-05,4.58018735e-05,7.8307078e-05,0.000113896086,0.000148173179
4.95,2.19353594e-06,1.90303511e-05,4.58326747e-05,7.83777741e-05,0.000114066215,0.000148755272
5.0,2.19478267e-06,1.90410293e-05,4.5862986e-05,7.84468656e-05,0.000114229991,0.000149310022
5.05,2.19601859e-06,1.90515853e-05,4.58928245e-05,7.85144251e-05,0.000114387867,0.000149835825
5.1,2.19724394e-06,1.90620226e-05,4.59222065e-05,7.85805206e-05,0.000114540251,0.000150331956
5.15,2.19845898e-06,1.90723444e-05,4.59511474e-05,7.86452156e-05,0.000114687508,0.000150798716
5.2,2.19966394e-06,1.9082554e-05,4.59796622e-05,7.870857e-05,0.000114829971,0.000151237281
5.25,2.20085906e-06,1.90926546e-05,4.60077649e-05,7.87706401e-05,0.000114967941,0.00015164941
5.3,2.20204456e-06,1.91026492e-05,4.60354691e-05,7.88314788e-05,0.000115101691,0.000152037143
5.35,2.20322066e-06,1.91125407e-05,4.60627878e-05,7.88911361e-05,0.000115231472,0.000152402573
5.4,2.20438756e-06,1.91223318e-05,4.60897334e-05,7.89496591e-05,0.00011535751,0.000152747713
5.45,2.20554548e-06,1.91320253e-05,4.61163177e-05,7.90070925e-05,0.000115480017,0.000153074428
5.5,2.20669462e-06,1.91416238e-05,4.61425522e-05,7.90634784e-05,0.000115599184,0.000153384403
5.55,2.20783515e-06,1.91511297e-05,4.61684477e-05,7.91188568e-05,0.000115715189,0.000153679149
5.6,2.20896728e-06,1.91605456e-05,4.61940148e-05,7.91732656e-05,0.000115828196,0.000153960008
5.65,2.21009119e-06,1.91698737e-05,4.62192634e-05,7.92267407e-05,0.000115938357,0.000154228172
5.7,2.21120704e-06,1.91791163e-05,4.62442032e-05,7.92793164e-05,0.000116045811,0.000154484697
5.75,2.21231501e-06,1.91882756e-05,4.62688436e-05,7.93310252e-05,0.000116150691,0.000154730521
5.8,2.21341526e-06,1.91973537e-05,4.62931933e-05,7.93818979e-05,0.000116253117,0.00015496648
5.85,2.21450797e-06,1.92063527e-05,4.63172609e-05,7.94319641e-05,0.000116353204,0.000155193318
5.9,2.21559327e-06,1.92152744e-05,4.63410547e-05,7.94812518e-05,0.000116451058,0.000155411702
5.95,2.21667133e-06,1.92241209e-05,4.63645827e-05,7.95297879e-05,0.000116546777,0.00015562223
6.0,2.2177423e-06,1.9232894e-05,4.63878523e-05,7.95775978e-05,0.000116640456,0.00015582544
6.05,2.21880631e-06,1.92415954e-05,4.6410871e-05,7.96247061e-05,0.000116732181,0.000156021819
6.1,2.2198635e-06,1.92502269e-05,4.64336459e-05,7.9671136e-05,0.000116822035,0.000156211807
6.15,2.22091402e-06,1.92587901e-05,4.64561836e-05,7.971691e-05,0.000116910096,0.000156395802
6.2,2.22195799e-06,1.92672868e-05,4.64784909e-05,7.97620493e-05,0.000116996435,0.00015657417
6.25,2.22299554e-06,1.92757184e-05,4.6500574e-05,7.98065745e-05,0.000117081123,0.000156747241
6.3,2.2240268e-06,1.92840864e-05,4.65224391e-05,7.98505051e-05,0.000117164225,0.00015691532
6.35,2.22505189e-06,1.92923924e-05,4.65440919e-05,7.98938599e-05,0.000117245801,0.000157078687
6.4,2.22607092e-06,1.93006377e-05,4.65655383e-05,7.9936657e-05,0.00011732591,0.000157237596
6.45,2.22708402e-06,1.93088239e-05,4.65867836e-05,7.99789136e-05,0.000117404609,0.000157392285
6.5,2.22809129e-06,1.93169521e-05,4.66078332e-05,8.00206463e-05,0.000117481948,0.000157542973
6.55,2.22909284e-06,1.93250237e-05,4.66286922e-05,8.00618711e-05,0.000117557979,0.000157689861
6.6,2.23008878e-06,1.93330399e-05,4.66493656e-05,8.01026032e-05,0.000117632749,0.000157833136
