vds,vb1,vb2,vb3,vb4,vb5,vb6
0.0,-0.0,-0.0,-0.0,-0.0,-0.0,-0.0
0.05,2.25215581e-06,6.67746439e-06,9.84613179e-06,1.21953056e-05,1.39826315e-05,1.53685278e-05
0.1,4.12579754e-06,1.299486e-05,1.93611889e-05,2.40844381e-05,2.76799984e-05,3.04694087e-05
0.15,5.7329635e-06,1.90641167e-05,2.8656984e-05,3.57791077e-05,4.12037308e-05,4.5414211e-05
0.2,7.10236525e-06,2.49137685e-05,3.77619343e-05,4.73076297e-05,5.4582064e-05,6.02311089e-05
0.25,8.24194567e-06,3.05514206e-05,4.66835287e-05,5.86773915e-05,6.78223059e-05,7.4927349e-05
0.3,9.15481118e-06,3.5979425e-05,5.54240029e-05,6.98905279e-05,8.09265122e-05,8.95049262e-05
0.35,9.84400401e-06,4.1198814e-05,6.39842734e-05,8.09478549e-05,9.38954199e-05,0.000103964517
0.4,1.0316606e-05,4.62102875e-05,7.23649245e-05,9.18498565e-05,0.000106729435,0.000118306466
0.45,1.05950782e-05,5.10144607e-05,8.05664555e-05,0.000102596933,0.000119428878,0.000132531036
0.5,1.07366718e-05,5.56119265e-05,8.85893437e-05,0.000113189461,0.000131994051,0.000146638466
0.55,1.08138978e-05,6.00032711e-05,9.64340593e-05,0.000123627814,0.000144425246,0.00016062899
0.6,1.08671882e-05,6.41890786e-05,0.000104101069,0.000133912359,0.000156722756,0.000174502842
0.65,1.09101335e-05,6.81699318e-05,0.00011159084,0.000144043464,0.000168886871,0.000188260252
0.7,1.09472205e-05,7.19464135e-05,0.000118903834,0.000154021497,0.000180917881,0.000201901451
0.75,1.09803018e-05,7.55191072e-05,0.000126040514,0.000163846821,0.000192816074,0.000215426669
0.8,1.10103417e-05,7.88885979e-05,0.00013300134,0.0001735198,0.00020458174,0.000228836136
0.85,1.10379344e-05,8.20554742e-05,0.000139786772,0.000183040798,0.000216215164,0.00024213008
0.9,1.10634886e-05,8.50203309e-05,0.000146397267,0.000192410176,0.000227716634,0.00025530873
0.95,1.10873059e-05,8.77837724e-05,0.00015283328,0.000201628294,0.000239086435,0.000268372313
1.0,1.11096193e-05,9.03464202e-05,0.000159095267,0.000210695511,0.000250324852,0.000281321057
1.05,1.11306145e-05,9.27089231e-05,0.000165183681,0.000219612187,0.000261432168,0.000294155187
1.1,1.1150443e-05,9.48719765e-05,0.000171098972,0.000228378677,0.000272408666,0.000306874931
1.15,1.11692304e-05,9.68363575e-05,0.000176841591,0.000236995338,0.000283254629,0.000319480512
1.2,1.11870825e-05,9.86029902e-05,0.000182411987,0.000245462525,0.000293970339,0.000331972156
1.25,1.12040895e-05,0.000100173077,0.000187810607,0.000253780591,0.000304556075,0.000344350087
1.3,1.12203285e-05,0.000101548371,0.000193037898,0.000261949889,0.000315012118,0.000356614528
1.35,1.12358668e-05,0.000102731766,0.000198094303,0.000269970771,0.000325338747,0.000368765702
1.4,1.12507628e-05,0.000103728557,0.000202980267,0.000277843586,0.000335536239,0.000380803832
1.45,1.12650679e-05,0.000104548934,0.000207696233,0.000285568684,0.000345604873,0.000392729139
1.5,1.12788275e-05,0.000105211553,0.000212242641,0.000293146413,0.000355544925,0.000404541845
1.55,1.12920819e-05,0.000105744991,0.000216619933,0.000300577121,0.000365356671,0.000416242169
1.6,1.13048672e-05,0.000106182198,0.000220828549,0.000307861153,0.000375040386,0.000427830333
1.65,1.13172156e-05,0.00010655134,0.000224868928,0.000314998854,0.000384596344,0.000439306555
1.7,1.13291561e-05,0.000106871907,0.000228741512,0.000321990568,0.000394024818,0.000450671054
1.75,1.13407149e-05,0.000107156334,0.000232446739,0.000328836639,0.000403326082,0.00046192405
1.8,1.13519158e-05,0.000107412653,0.000235985052,0.000335537407,0.000412500406,0.000473065758
1.85,1.13627804e-05,0.000107646313,0.000239356895,0.000342093213,0.000421548064,0.000484096397
1.9,1.13733284e-05,0.000107861214,0.000242562715,0.000348504397,0.000430469323,0.000495016183
1.95,1.13835779e-05,0.000108060266,0.000245602965,0.000354771298,0.000439264456,0.000505825332
2.0,1.13935453e-05,0.000108245718,0.000248478108,0.000360894253,0.000447933729,0.00051652406
2.05,1.14032458e-05,0.000108419353,0.00025118862,0.000366873598,0.000456477411,0.000527112582
2.1,1.14126936e-05,0.000108582614,0.000253735001,0.000372709669,0.00046489577,0.000537591111
2.15,1.14219015e-05,0.000108736687,0.000256117786,0.000378402801,0.000473189072,0.000547959862
2.2,1.14308815e-05,0.000108882564,0.000258337572,0.000383953326,0.000481357583,0.000558219047
2.25,1.14396447e-05,0.000109021081,0.000260395058,0.000389361578,0.000489401567,0.000568368881
2.3,1.14482015e-05,0.00010915295,0.000262291122,0.000394627887,0.000497321289,0.000578409574
2.35,1.14565614e-05,0.000109278785,0.000264026967,0.000399752583,0.000505117013,0.000588341338
2.4,1.14647335e-05,0.000109399117,0.000265604398,0.000404735996,0.000512789,0.000598164384
2.45,1.14727262e-05,0.000109514408,0.000267026328,0.000409578455,0.000520337514,0.000607878924
2.5,1.14805473e-05,0.000109625067,0.000268297645,0.000414280285,0.000527762816,0.000617485166
2.55,1.14882041e-05,0.000109731452,0.000269426382,0.000418841814,0.000535065165,0.00062698332
2.6,1.14957037e-05,0.000109833882,0.00027042463,0.000423263366,0.000542244822,0.000636373595
2.65,1.15030524e-05,0.000109932641,0.000271308107,0.000427545265,0.000549302045,0.000645656199
2.7,1.15102564e-05,0.000110027986,0.000272094059,0.000431687833,0.000556237093,0.00065483134
2.75,1.15173214e-05,0.000110120143,0.000272798765,0.000435691393,0.000563050223,0.000663899225
2.8,1.15242529e-05,0.000110209321,0.000273436098,0.000439556263,0.000569741691,0.000672860061
2.85,1.15310561e-05,0.000110295706,0.000274017258,0.000443282762,0.000576311755,0.000681714055
2.9,1.15377357e-05,0.000110379468,0.000274551115,0.000446871208,0.000582760668,0.00069046141
2.95,1.15442964e-05,0.000110460763,0.000275044693,0.000450321914,0.000589088685,0.000699102334
3.0,1.15507426e-05,0.000110539732,0.000275503602,0.000453635193,0.00059529606,0.00070763703
3.05,1.15570784e-05,0.000110616505,0.000275932373,0.000456811353,0.000601383046,0.000716065702
3.1,1.15633076e-05,0.000110691202,0.000276334712,0.000459850699,0.000607349894,0.000724388553
3.15,1.15694342e-05,0.000110763933,0.000276713685,0.00046275353,0.000613196856,0.000732605788
3.2,1.15754615e-05,0.000110834798,0.000277071854,0.000465520139,0.000618924182,0.000740717607
3.25,1.1581393e-05,0.000110903893,0.000277411385,0.000468150806,0.000624532121,0.000748724213
3.3,1.15872318e-05,0.000110971305,0.000277734119,0.0004706458,0.000630020922,0.000756625807
3.35,1.15929812e-05,0.000111037113,0.000278041642,0.000473005374,0.000635390832,0.000764422591
3.4,1.15986439e-05,0.000111101395,0.000278335322,0.000475229767,0.000640642099,0.000772114763
3.45,1.16042229e-05,0.00011116422,0.000278616352,0.000477319215,0.000645774966,0.000779702525
3.5,1.16097207e-05,0.000111225653,0.000278885776,0.000479274003,0.00065078968,0.000787186075
3.55,1.16151399e-05,0.000111285757,0.000279144517,0.000481094603,0.000655686482,0.000794565612
3.6,1.1620483e-05,0.000111344589,0.000279393388,0.000482781993,0.000660465614,0.000801841333
3.65,1.16257523e-05,0.000111402203,0.000279633115,0.00048433826,0.000665127317,0.000809013437
3.7,1.163095e-05,0.00011145865,0.000279864347,0.000485767433,0.000669671829,0.000816082121
3.75,1.16360784e-05,0.000111513978,0.000280087666,0.000487076175,0.000674099385,0.000823047581
3.8,1.16411394e-05,0.000111568232,0.000280303595,0.000488273762,0.00067841022,0.000829910013
3.85,1.1646135e-05,0.000111621454,0.000280512608,0.000489371188,0.000682604564,0.000836669611
3.9,1.16510671e-05,0.000111673685,0.000280715136,0.000490379906,0.000686682644,0.000843326572
3.95,1.16559376e-05,0.000111724963,0.000280911568,0.000491310801,0.000690644682,0.000849881089
4.0,1.16607482e-05,0.000111775323,0.000281102262,0.00049217363,0.000694490895,0.000856333356
4.05,1.16655005e-05,0.0001118248,0.000281287544,0.000492976856,0.00069822149,0.000862683566
4.1,1.16701963e-05,0.000111873426,0.000281467715,0.000493727698,0.000701836667,0.00086893191
4.15,1.16748369e-05,0.000111921232,0.000281643048,0.000494432279,0.00070533661,0.000875078581
4.2,1.16794241e-05,0.000111968247,0.0002818138,0.000495095785,0.000708721484,0.00088112377
4.25,1.16839591e-05,0.000112014499,0.000281980204,0.000495722625,0.000711991432,0.000887067668
4.3,1.16884433e-05,0.000112060015,0.000282142478,0.000496316561,0.000715146558,0.000892910463
4.35,1.16928782e-05,0.000112104819,0.000282300824,0.000496880825,0.000718186916,0.000898652344
4.4,1.1697265e-05,0.000112148935,0.00028245543,0.000497418205,0.000721112489,0.0009042935
4.45,1.17016049e-05,0.000112192387,0.000282606471,0.00049793112,0.000723923157,0.000909834117
4.5,1.17058991e-05,0.000112235196,0.000282754109,0.000498421684,0.000726618651,0.000915274382
4.55,1.17101489e-05,0.000112277384,0.000282898498,0.000498891751,0.000729198495,0.000920614479
4.6,1.17143552e-05,0.000112318969,0.00028303978,0.000499342954,0.000731661923,0.000925854594
4.65,1.17185192e-05,0.000112359972,0.000283178089,0.000499776743,0.000734007806,0.000930994907
4.7,1.1722642e-05,0.000112400411,0.000283313551,0.000500194406,0.000736234611,0.0009360356
4.75,1.17267245e-05,0.000112440303,0.000283446284,0.000500597095,0.000738340498,0.000940976852
4.8,1.17307677e-05,0.000112479665,0.0002835764,0.000500985843,0.000740323701,0.00094581884
4.85,1.17347725e-05,0.000112518512,0.000283704005,0.000501361582,0.000742183288,0.000950561741
4.9,1.17387399e-05,0.000112556862,0.000283829196,0.000501725151,0.000743920144,0.000955205724
4.95,1.17426708e-05,0.000112594727,0.000283952068,0.000502077314,0.000745537743,0.00095975096
5.0,1.17465659e-05,0.000112632123,0.00028407271,0.000502418764,0.000747042233,0.000964197612
5.05,1.17504261e-05,0.000112669064,0.000284191205,0.000502750133,0.000748441781,0.000968545839
5.1,1.17542523e-05,0.000112705561,0.000284307633,0.000503071999,0.000749745592,0.000972795796
5.15,1.17580451e-05,0.000112741629,0.000284422071,0.000503384892,0.000750963004,0.000976947626
5.2,1.17618053e-05,0.000112777278,0.000284534589,0.000503689302,0.000752102885,0.000981001464
5.25,1.17655337e-05,0.000112812522,0.000284645256,0.000503985675,0.000753173328,0.000984957431
5.3,1.1769231e-05,0.00011284737,0.000284754137,0.000504274429,0.000754181538,0.00098881563
5.35,1.17728977e-05,0.000112881834,0.000284861294,0.000504555946,0.000755133854,0.000992576142
5.4,1.17765347e-05,0.000112915924,0.000284966786,0.000504830583,0.000756035817,0.000996239015
5.45,1.17801425e-05,0.000112949651,0.000285070669,0.000505098672,0.00075689226,0.000999804256
5.5,1.17837218e-05,0.000112983024,0.000285172996,0.00050536052,0.000757707403,0.00100327182
5.55,1.17872731e-05,0.000113016052,0.00028527382,0.000505616415,0.000758484939,0.00100664157
5.6,1.17907971e-05,0.000113048744,0.000285373189,0.000505866626,0.000759228107,0.00100991326
5.65,1.17942943e-05,0.000113081109,0.000285471149,0.000506111405,0.000759939762,0.00101308652
5.7,1.17977652e-05,0.000113113156,0.000285567747,0.000506350988,0.000760622426,0.00101616073
5.75,1.18012105e-05,0.000113144892,0.000285663024,0.000506585595,0.000761278339,0.00101913498
5.8,1.18046306e-05,0.000113176325,0.000285757022,0.000506815435,0.000761909495,0.00102200796
5.85,1.18080259e-05,0.000113207464,0.00028584978,0.000507040703,0.000762517678,0.00102477783
5.9,1.18113972e-05,0.000113238314,0.000285941336,0.000507261585,0.000763104487,0.00102744208
5.95,1.18147447e-05,0.000113268884,0.000286031726,0.000507478255,0.000763671363,0.00102999747
6.0,1.18180689e-05,0.00011329918,0.000286120985,0.000507690877,0.000764219609,0.00103244017
6.05,1.18213704e-05,0.000113329209,0.000286209147,0.000507899608,0.000764750403,0.00103476618
6.1,1.18246495e-05,0.000113358976,0.000286296243,0.000508104594,0.000765264817,0.00103697209
6.15,1.18279068e-05,0.000113388489,0.000286382304,0.000508305976,0.000765763829,0.00103905618
6.2,1.18311425e-05,0.000113417753,0.000286467361,0.000508503886,0.000766248332,0.00104101913
6.25,1.18343571e-05,0.000113446775,0.000286551441,0.00050869845,0.000766719144,0.00104286438
6.3,1.18375509e-05,0.000113475559,0.000286634572,0.000508889789,0.000767177016,0.00104459771
6.35,1.18407245e-05,0.00011350411,0.00028671678,0.000509078016,0.000767622642,0.00104622649
6.4,1.18438781e-05,0.000113532436,0.000286798092,0.000509263239,0.00076805666,0.00104775883
6.45,1.18470122e-05,0.000113560539,0.00028687853,0.000509445562,0.000768479661,0.00104920294
6.5,1.1850127e-05,0.000113588426,0.00028695812,0.000509625084,0.000768892193,0.00105056671
6.55,1.18532229e-05,0.000113616102,0.000287036884,0.000509801899,0.000769294765,0.00105185742
6.6,1.18563002e-05,0.00011364357,0.000287114843,0.000509976096,0.00076968785,0.00105308172
