vds,vb1,vb2,vb3,vb4,vb5,vb6
0.0,-0.0,-0.0,-0.0,-0.0,-0.0,-0.0
0.05,6.85439265e-07,1.97568103e-06,2.87634416e-06,3.52022724e-06,3.9840427e-06,4.31795406e-06
0.1,1.28350755e-06,3.86699137e-06,5.67512961e-06,6.96983435e-06,7.90402529e-06,8.57783658e-06
0.15,1.80372989e-06,5.68344486e-06,8.40578154e-06,1.03581506e-05,1.17691936e-05,1.27888253e-05
0.2,2.24898352e-06,7.42787723e-06,1.10710482e-05,1.36878298e-05,1.55821191e-05,1.69534244e-05
0.25,2.62053681e-06,9.10144352e-06,1.36719984e-05,1.69598475e-05,1.93436961e-05,2.10724616e-05
0.3,2.91942782e-06,1.07048723e-05,1.62092754e-05,2.01747553e-05,2.3054396e-05,2.51463428e-05
0.35,3.14721279e-06,1.22387805e-05,1.86834119e-05,2.33329953e-05,2.67145819e-05,2.91753661e-05
0.4,3.3077119e-06,1.37037524e-05,2.1094909e-05,2.64349795e-05,3.03245877e-05,3.31598013e-05
0.45,3.41204626e-06,1.51003599e-05,2.34442561e-05,2.94811094e-05,3.38847378e-05,3.70999093e-05
0.5,3.48151673e-06,1.64291673e-05,2.57319358e-05,3.24717808e-05,3.73953522e-05,4.09959477e-05
0.55,3.53443444e-06,1.76907333e-05,2.79584254e-05,3.54073858e-05,4.08567478e-05,4.48481713e-05
0.6,3.57880562e-06,1.88856111e-05,3.01241971e-05,3.82883123e-05,4.42692386e-05,4.86568332e-05
0.65,3.61766138e-06,2.00143494e-05,3.22297184e-05,4.11149448e-05,4.7633136e-05,5.24221843e-05
0.7,3.65244896e-06,2.10774929e-05,3.42754518e-05,4.3887664e-05,5.09487488e-05,5.61444737e-05
0.75,3.68403311e-06,2.20755829e-05,3.62618553e-05,4.66068472e-05,5.42163829e-05,5.98239483e-05
0.8,3.71300186e-06,2.30091592e-05,3.81893819e-05,4.92728681e-05,5.7436342e-05,6.34608535e-05
0.85,3.73978467e-06,2.38787624e-05,4.00584803e-05,5.18860969e-05,6.0608927e-05,6.70554326e-05
0.9,3.76470901e-06,2.46849376e-05,4.18695945e-05,5.44469003e-05,6.37344362e-05,7.06079271e-05
0.95,3.78803202e-06,2.54282423e-05,4.36231638e-05,5.69556417e-05,6.68131656e-05,7.41185767e-05
1.0,3.80996002e-06,2.61092605e-05,4.53196231e-05,5.9412681e-05,6.98454086e-05,7.75876191e-05
1.05,3.83066141e-06,2.67286341e-05,4.69594026e-05,6.18183749e-05,7.2831456e-05,8.10152904e-05
1.1,3.85027561e-06,2.72871331e-05,4.85429282e-05,6.41730767e-05,7.57715966e-05,8.44018248e-05
1.15,3.8689194e-06,2.77858301e-05,5.00706207e-05,6.64771363e-05,7.86661162e-05,8.77474548e-05
1.2,3.88669167e-06,2.82265209e-05,5.15428962e-05,6.87309005e-05,8.15152986e-05,9.10524111e-05
1.25,3.90367685e-06,2.86125384e-05,5.29601655e-05,7.09347128e-05,8.43194251e-05,9.43169227e-05
1.3,3.91994769e-06,2.89495173e-05,5.43228338e-05,7.30889133e-05,8.70787748e-05,9.75412167e-05
1.35,3.93556727e-06,2.92448784e-05,5.56312994e-05,7.51938391e-05,8.97936242e-05,0.000100725519
1.4,3.95059067e-06,2.95061491e-05,5.68859525e-05,7.72498239e-05,9.24642477e-05,0.000103870052
1.45,3.96506627e-06,2.9739753e-05,5.8087172e-05,7.92571982e-05,9.50909173e-05,0.00010697504
1.5,3.97903681e-06,2.99507563e-05,5.92353213e-05,8.12162892e-05,9.76739027e-05,0.000110040702
1.55,3.99254019e-06,3.01430673e-05,6.03307393e-05,8.31274206e-05,0.000100213472,0.000113067258
1.6,4.00561024e-06,3.03197089e-05,6.13737245e-05,8.49909128e-05,0.000102709889,0.000116054924
1.65,4.01827724e-06,3.04830462e-05,6.2364505e-05,8.68070823e-05,0.000105163418,0.000119003916
1.7,4.03056841e-06,3.06349567e-05,6.33031807e-05,8.85762417e-05,0.00010757432,0.000121914448
1.75,4.04250832e-06,3.07769515e-05,6.41896139e-05,9.02986996e-05,0.000109942852,0.000124786732
1.8,4.0541192e-06,3.09102636e-05,6.50232349e-05,9.19747595e-05,0.000112269272,0.000127620979
1.85,4.06542128e-06,3.10359108e-05,6.58027672e-05,9.36047192e-05,0.000114553833,0.000130417398
1.9,4.07643295e-06,3.1154743e-05,6.65260844e-05,9.51888697e-05,0.000116796788,0.000133176197
1.95,4.08717106e-06,3.12674768e-05,6.71908227e-05,9.67274934e-05,0.000118998385,0.000135897582
2.0,4.09765103e-06,3.13747218e-05,6.77961511e-05,9.82208606e-05,0.000121158872,0.000138581757
2.05,4.10788702e-06,3.14770007e-05,6.83444016e-05,9.96692258e-05,0.000123278493,0.000141228925
2.1,4.11789208e-06,3.15747654e-05,6.88407883e-05,0.000101072819,0.000125357491,0.000143839289
2.15,4.12767827e-06,3.16684088e-05,6.92917845e-05,0.000102431837,0.000127396105,0.000146413046
2.2,4.13725673e-06,3.17582746e-05,6.97037429e-05,0.000103746416,0.000129394572,0.000148950396
2.25,4.1466378e-06,3.18446656e-05,7.00822636e-05,0.000105016604,0.000131353126,0.000151451536
2.3,4.15583107e-06,3.19278495e-05,7.04320589e-05,0.000106242296,0.000133271996,0.000153916661
2.35,4.16484549e-06,3.20080643e-05,7.07570266e-05,0.000107423128,0.00013515141,0.000156345964
2.4,4.17368939e-06,3.20855225e-05,7.1060381e-05,0.00010855829,0.000136991588,0.000158739638
2.45,4.18237056e-06,3.21604147e-05,7.13447819e-05,0.000109646231,0.000138792746,0.000161097873
2.5,4.19089627e-06,3.22329124e-05,7.16124444e-05,0.000110684262,0.000140555093,0.000163420858
2.55,4.19927336e-06,3.23031705e-05,7.18652269e-05,0.000111668262,0.000142278829,0.00016570878
2.6,4.20750824e-06,3.23713295e-05,7.2104701e-05,0.000112593059,0.000143964142,0.000167961825
2.65,4.21560691e-06,3.24375171e-05,7.23322057e-05,0.000113454035,0.000145611201,0.000170180175
2.7,4.22357506e-06,3.25018498e-05,7.254889e-05,0.000114249303,0.000147220153,0.000172364013
2.75,4.23141802e-06,3.2564434e-05,7.27557468e-05,0.000114980711,0.000148791109,0.000174513519
2.8,4.23914083e-06,3.26253676e-05,7.29536394e-05,0.000115653013,0.000150324131,0.000176628869
2.85,4.24674826e-06,3.26847403e-05,7.31433232e-05,0.000116272306,0.000151819196,0.000178710238
2.9,4.2542448e-06,3.2742635e-05,7.33254622e-05,0.000116844819,0.000153276159,0.000180757798
2.95,4.26163472e-06,3.27991283e-05,7.35006435e-05,0.000117376289,0.000154694674,0.000182771717
3.0,4.26892206e-06,3.28542908e-05,7.36693887e-05,0.000117871742,0.00015607407,0.000184752161
3.05,4.27611065e-06,3.29081885e-05,7.38321631e-05,0.00011833549,0.000157413154,0.000186699287
3.1,4.28320413e-06,3.29608824e-05,7.39893832e-05,0.000118771197,0.000158709909,0.000188613251
3.15,4.29020596e-06,3.30124294e-05,7.41414241e-05,0.000119181976,0.000159961106,0.000190494197
3.2,4.29711943e-06,3.30628827e-05,7.42886239e-05,0.000119570478,0.000161161987,0.000192342261
3.25,4.30394767e-06,3.31122919e-05,7.4431289e-05,0.000119938969,0.000162306416,0.000194157566
3.3,4.31069367e-06,3.31607036e-05,7.45696978e-05,0.000120289397,0.000163387999,0.000195940213
3.35,4.31736028e-06,3.32081613e-05,7.4704104e-05,0.000120623445,0.00016440203,0.000197690282
3.4,4.3239502e-06,3.3254706e-05,7.48347393e-05,0.000120942578,0.000165347095,0.000199407811
3.45,4.33046604e-06,3.33003763e-05,7.49618163e-05,0.000121248074,0.000166225255,0.000201092788
3.5,4.33691027e-06,3.33452084e-05,7.50855302e-05,0.000121541057,0.000167041009,0.000202745119
3.55,4.34328525e-06,3.33892365e-05,7.52060609e-05,0.000121822518,0.000167800001,0.000204364588
3.6,4.34959326e-06,3.3432493e-05,7.53235744e-05,0.000122093336,0.000168508057,0.000205950796
3.65,4.35583647e-06,3.34750083e-05,7.54382243e-05,0.000122354296,0.000169170667,0.000207503056
3.7,4.36201694e-06,3.35168115e-05,7.55501533e-05,0.000122606096,0.00016979277,0.000209020236
3.75,4.36813667e-06,3.35579298e-05,7.56594936e-05,0.000122849367,0.000170378705,0.000210500524
3.8,4.37419758e-06,3.35983893e-05,7.57663686e-05,0.000123084676,0.000170932247,0.000211941113
3.85,4.38020148e-06,3.36382146e-05,7.58708932e-05,0.000123312533,0.000171456668,0.000213337861
3.9,4.38615015e-06,3.3677429e-05,7.5973175e-05,0.000123533405,0.000171954802,0.000214685127
3.95,4.39204525e-06,3.37160549e-05,7.60733144e-05,0.000123747714,0.000172429112,0.000215976152
4.0,4.39788843e-06,3.37541135e-05,7.61714058e-05,0.000123955846,0.000172881744,0.000217204249
4.05,4.40368122e-06,3.3791625e-05,7.62675376e-05,0.000124158156,0.000173314578,0.00021836449
4.1,4.40942514e-06,3.38286085e-05,7.63617932e-05,0.000124354966,0.000173729265,0.000219454963
4.15,4.41512161e-06,3.38650825e-05,7.64542509e-05,0.000124546575,0.000174127261,0.000220476905
4.2,4.42077203e-06,3.39010645e-05,7.65449846e-05,0.000124733258,0.000174509859,0.000221433901
4.25,4.42637774e-06,3.39365712e-05,7.6634064e-05,0.000124915269,0.000174878208,0.000222330819
4.3,4.43194e-06,3.39716185e-05,7.67215552e-05,0.000125092845,0.000175233335,0.000223172957
4.35,4.43746007e-06,3.40062219e-05,7.68075204e-05,0.000125266202,0.000175576162,0.000223965508
4.4,4.44293913e-06,3.40403959e-05,7.68920187e-05,0.000125435546,0.000175907519,0.000224713297
4.45,4.44837834e-06,3.40741545e-05,7.69751062e-05,0.000125601064,0.000176228153,0.000225420676
4.5,4.4537788e-06,3.41075113e-05,7.70568361e-05,0.000125762934,0.000176538743,0.000226091513
4.55,4.45914158e-06,3.4140479e-05,7.71372589e-05,0.000125921321,0.000176839907,0.000226729222
4.6,4.46446771e-06,3.417307e-05,7.72164226e-05,0.00012607638,0.000177132206,0.000227336805
4.65,4.46975819e-06,3.42052961e-05,7.72943729e-05,0.000126228257,0.000177416154,0.000227916905
4.7,4.47501397e-06,3.42371687e-05,7.73711535e-05,0.000126377087,0.000177692222,0.000228471851
4.75,4.480236e-06,3.42686987e-05,7.74468057e-05,0.000126523,0.000177960844,0.000229003703
4.8,4.48542516e-06,3.42998966e-05,7.75213692e-05,0.000126666117,0.000178222417,0.000229514285
4.85,4.49058231e-06,3.43307725e-05,7.75948817e-05,0.000126806551,0.000178477309,0.000230005222
4.9,4.49570831e-06,3.43613361e-05,7.76673794e-05,0.000126944411,0.000178725861,0.000230477962
4.95,4.50080395e-06,3.43915966e-05,7.77388968e-05,0.000127079799,0.000178968389,0.000230933804
5.0,4.50587003e-06,3.44215631e-05,7.78094667e-05,0.00012721281,0.000179205187,0.000231373912
5.05,4.51090729e-06,3.44512441e-05,7.78791209e-05,0.000127343538,0.000179436526,0.00023179934
5.1,4.51591648e-06,3.4480648e-05,7.79478895e-05,0.000127472069,0.000179662663,0.000232211037
5.15,4.52089829e-06,3.45097828e-05,7.80158014e-05,0.000127598484,0.000179883835,0.000232609866
5.2,4.52585342e-06,3.45386562e-05,7.80828844e-05,0.000127722864,0.000180100265,0.000232996612
5.25,4.53078254e-06,3.45672755e-05,7.81491651e-05,0.000127845281,0.000180312162,0.000233371991
5.3,4.53568628e-06,3.45956481e-05,7.82146691e-05,0.000127965808,0.000180519722,0.000233736658
5.35,4.54056527e-06,3.46237807e-05,7.82794208e-05,0.000128084512,0.000180723129,0.000234091213
5.4,4.54542012e-06,3.46516802e-05,7.83434437e-05,0.000128201458,0.000180922557,0.000234436209
5.45,4.5502514e-06,3.46793527e-05,7.84067604e-05,0.000128316706,0.00018111817,0.000234772154
5.5,4.5550597e-06,3.47068047e-05,7.84693927e-05,0.000128430317,0.000181310123,0.000235099519
5.55,4.55984555e-06,3.47340421e-05,7.85313614e-05,0.000128542346,0.000181498561,0.000235418739
5.6,4.5646095e-06,3.47610706e-05,7.85926865e-05,0.000128652847,0.000181683624,0.000235730217
5.65,4.56935205e-06,3.47878959e-05,7.86533874e-05,0.000128761871,0.000181865441,0.000236034329
5.7,4.57407373e-06,3.48145234e-05,7.87134827e-05,0.000128869467,0.000182044138,0.000236331425
5.75,4.578775e-06,3.48409582e-05,7.87729903e-05,0.000128975684,0.000182219832,0.00023662183
5.8,4.58345634e-06,3.48672055e-05,7.88319273e-05,0.000129080565,0.000182392635,0.000236905849
5.85,4.58811823e-06,3.489327e-05,7.88903104e-05,0.000129184155,0.000182562655,0.000237183768
5.9,4.59276109e-06,3.49191566e-05,7.89481556e-05,0.000129286494,0.000182729992,0.000237455854
5.95,4.59738536e-06,3.49448698e-05,7.90054782e-05,0.000129387623,0.000182894744,0.000237722358
6.0,4.60199147e-06,3.4970414e-05,7.90622932e-05,0.00012948758,0.000183057002,0.000237983518
6.05,4.60657982e-06,3.49957935e-05,7.91186149e-05,0.000129586401,0.000183216854,0.000238239555
6.1,4.61115081e-06,3.50210125e-05,7.9174457e-05,0.000129684122,0.000183374385,0.00023849068
6.15,4.61570483e-06,3.50460748e-05,7.9229833e-05,0.000129780777,0.000183529675,0.00023873709
6.2,4.62024225e-06,3.50709845e-05,7.92847558e-05,0.000129876399,0.000183682799,0.000238978975
6.25,4.62476344e-06,3.50957452e-05,7.93392377e-05,0.000129971018,0.000183833833,0.000239216511
6.3,4.62926874e-06,3.51203607e-05,7.93932907e-05,0.000130064666,0.000183982846,0.000239449866
6.35,4.63375852e-06,3.51448344e-05,7.94469266e-05,0.000130157371,0.000184129905,0.000239679201
6.4,4.63823309e-06,3.51691698e-05,7.95001564e-05,0.00013024916,0.000184275075,0.000239904667
6.45,4.6426928e-06,3.51933701e-05,7.95529911e-05,0.000130340062,0.000184418417,0.000240126407
6.5,4.64713795e-06,3.52174387e-05,7.9605441e-05,0.000130430103,0.00018455999,0.00024034456
6.55,4.65156885e-06,3.52413785e-05,7.96575163e-05,0.000130519306,0.000184699853,0.000240559255
6.6,4.65598582e-06,3.52651927e-05,7.97092269e-05,0.000130607696,0.000184838058,0.000240770618
