vds,vb1,vb2,vb3,vb4,vb5,vb6
0.0,-0.0,-0.0,-0.0,-0.0,-0.0,-0.0
0.05,1.39617868e-06,4.16325468e-06,6.12274915e-06,7.5527313e-06,8.6155695e-06,9.41443183e-06
0.1,2.59777249e-06,8.13992985e-06,1.20747912e-05,1.49495328e-05,1.70883511e-05,1.86976103e-05
0.15,3.63905993e-06,1.19642314e-05,1.78901924e-05,2.22243391e-05,2.54521715e-05,2.78832768e-05
0.2,4.52934416e-06,1.5645341e-05,2.35779966e-05,2.93860633e-05,3.37158369e-05,3.69801526e-05
0.25,5.27175913e-06,1.91861566e-05,2.91409646e-05,3.64373373e-05,4.18818727e-05,4.59906794e-05
0.3,5.86816362e-06,2.25879948e-05,3.45802773e-05,4.33792138e-05,4.99512269e-05,5.49157215e-05
0.35,6.32096515e-06,2.58517715e-05,3.98967159e-05,5.02123472e-05,5.79244494e-05,6.37557464e-05
0.4,6.63586008e-06,2.89782976e-05,4.50909576e-05,5.69372893e-05,6.58019887e-05,7.25111202e-05
0.45,6.83021658e-06,3.19683538e-05,5.01636504e-05,6.35545636e-05,7.3584266e-05,8.11821829e-05
0.5,6.94378024e-06,3.48227093e-05,5.51154315e-05,7.00646841e-05,8.12716937e-05,8.97692662e-05
0.55,7.01957831e-06,3.75421269e-05,5.99469322e-05,7.64681601e-05,8.88646805e-05,9.82726985e-05
0.6,7.07902536e-06,4.0127364e-05,6.4658779e-05,8.27654973e-05,9.63636323e-05,0.000106692806
0.65,7.12956281e-06,4.25791741e-05,6.92515941e-05,8.89571979e-05,0.000103768952,0.000115029914
0.7,7.17411267e-06,4.48983065e-05,7.37259951e-05,9.50437612e-05,0.000111081042,0.000123284345
0.75,7.2141597e-06,4.70855079e-05,7.80825956e-05,0.000101025683,0.0001183003,0.000131456419
0.8,7.25061701e-06,4.9141523e-05,8.23220048e-05,0.000106903456,0.000125427123,0.000139546458
0.85,7.28411384e-06,5.1067097e-05,8.64448279e-05,0.000112677571,0.000132461905,0.000147554778
0.9,7.31511391e-06,5.28629785e-05,9.04516658e-05,0.000118348513,0.000139405039,0.000155481696
0.95,7.34397378e-06,5.45299245e-05,9.43431152e-05,0.000123916767,0.000146256913,0.000163327526
1.0,7.37097571e-06,5.60687101e-05,9.8119769e-05,0.000129382814,0.000153017916,0.000171092581
1.05,7.396348e-06,5.74801455e-05,0.000101782216,0.00013474713,0.000159688433,0.000178777173
1.1,7.42027846e-06,5.87651104e-05,0.00010533104,0.00014001019,0.000166268847,0.000186381612
1.15,7.44292367e-06,5.99246242e-05,0.000108766823,0.000145172466,0.00017275954,0.000193906206
1.2,7.46441574e-06,6.09600022e-05,0.00011209014,0.000150234427,0.00017916089,0.00020135126
1.25,7.48486718e-06,6.18732114e-05,0.000115301565,0.000155196539,0.000185473274,0.000208717081
1.3,7.50437472e-06,6.26676735e-05,0.000118401665,0.000160059264,0.000191697067,0.000216003972
1.35,7.52302209e-06,6.33498296e-05,0.000121391006,0.000164823062,0.00019783264,0.000223212235
1.4,7.54088232e-06,6.39310469e-05,0.000124270147,0.000169488391,0.000203880366,0.00023034217
1.45,7.55801945e-06,6.44275057e-05,0.000127039645,0.000174055704,0.000209840611,0.000237394075
1.5,7.57449002e-06,6.48565764e-05,0.00012970005,0.000178525453,0.000215713742,0.000244368249
1.55,7.59034414e-06,6.52330477e-05,0.000132251909,0.000182898085,0.000221500124,0.000251264987
1.6,7.60562648e-06,6.5568074e-05,0.000134695762,0.000187174048,0.000227200118,0.000258084583
1.65,7.62037701e-06,6.58698033e-05,0.000137032144,0.000191353783,0.000232814085,0.000264827331
1.7,7.63463164e-06,6.61442441e-05,0.000139261581,0.00019543773,0.000238342383,0.00027149352
1.75,7.64842279e-06,6.63959241e-05,0.000141384587,0.000199426327,0.000243785367,0.000278083443
1.8,7.66177976e-06,6.66283321e-05,0.000143401661,0.000203320006,0.000249143392,0.000284597385
1.85,7.67472919e-06,6.6844212e-05,0.000145313278,0.000207119199,0.000254416811,0.000291035636
1.9,7.68729534e-06,6.70457604e-05,0.000147119878,0.000210824334,0.000259605972,0.000297398479
1.95,7.69950036e-06,6.7234763e-05,0.000148821836,0.000214435835,0.000264711224,0.0003036862
2.0,7.71136458e-06,6.74126911e-05,0.00015041943,0.000217954123,0.000269732913,0.00030989908
2.05,7.72290662e-06,6.75807715e-05,0.000151912764,0.000221379616,0.000274671384,0.0003160374
2.1,7.73414366e-06,6.77400377e-05,0.000153301685,0.000224712729,0.000279526977,0.000322101441
2.15,7.74509156e-06,6.78913686e-05,0.000154585719,0.000227953869,0.000284300035,0.000328091481
2.2,7.75576497e-06,6.80355179e-05,0.000155764285,0.000231103443,0.000288990894,0.000334007796
2.25,7.76617747e-06,6.81731366e-05,0.000156837606,0.000234161849,0.00029359989,0.000339850662
2.3,7.77634169e-06,6.83047913e-05,0.000157808454,0.000237129478,0.000298127358,0.000345620353
2.35,7.78626937e-06,6.84309777e-05,0.000158683482,0.000240006716,0.00030257363,0.000351317142
2.4,7.79597145e-06,6.85521322e-05,0.000159472638,0.000242793934,0.000306939036,0.0003569413
2.45,7.80545816e-06,6.86686411e-05,0.000160187145,0.000245491491,0.000311223903,0.000362493097
2.5,7.81473906e-06,6.87808476e-05,0.000160837724,0.000248099725,0.000315428558,0.000367972802
2.55,7.82382311e-06,6.88890587e-05,0.000161433741,0.000250618946,0.000319553323,0.00037338068
2.6,7.8327187e-06,6.89935492e-05,0.000161983038,0.000253049421,0.00032359852,0.000378717
2.65,7.84143375e-06,6.90945669e-05,0.000162492079,0.000255391357,0.000327564467,0.000383982023
2.7,7.84997567e-06,6.91923354e-05,0.000162966175,0.000257644864,0.000331451481,0.000389176015
2.75,7.85835146e-06,6.92870578e-05,0.000163409704,0.000259809899,0.000335259873,0.000394299236
2.8,7.86656774e-06,6.93789185e-05,0.000163826302,0.000261886178,0.000338989955,0.000399351946
2.85,7.87463073e-06,6.94680859e-05,0.000164219008,0.000263873028,0.000342642031,0.000404334404
2.9,7.88254632e-06,6.95547139e-05,0.000164590386,0.000265769154,0.000346216406,0.000409246868
2.95,7.8903201e-06,6.96389438e-05,0.000164942615,0.000267572329,0.000349713377,0.000414089594
3.0,7.89795736e-06,6.97209056e-05,0.000165277559,0.000269279073,0.000353133235,0.000418862836
3.05,7.90546309e-06,6.98007189e-05,0.000165596826,0.000270884663,0.000356476266,0.000423566847
3.1,7.91284207e-06,6.98784945e-05,0.000165901812,0.000272384017,0.000359742748,0.000428201879
3.15,7.92009882e-06,6.99543347e-05,0.000166193734,0.000273773734,0.000362932946,0.000432768182
3.2,7.92723762e-06,7.00283348e-05,0.000166473663,0.000275054308,0.000366047113,0.000437266003
3.25,7.93426258e-06,7.01005831e-05,0.000166742542,0.000276230842,0.000369085482,0.000441695591
3.3,7.94117759e-06,7.01711619e-05,0.00016700121,0.000277311861,0.000372048262,0.00044605719
3.35,7.94798637e-06,7.02401481e-05,0.00016725041,0.000278307388,0.000374935625,0.000450351043
3.4,7.95469245e-06,7.03076134e-05,0.000167490812,0.000279227428,0.000377747696,0.000454577392
3.45,7.96129923e-06,7.03736252e-05,0.000167723015,0.000280081155,0.000380484524,0.000458736475
3.5,7.96780993e-06,7.04382464e-05,0.000167947558,0.000280876626,0.000383146054,0.00046282853
3.55,7.97422764e-06,7.05015364e-05,0.000168164932,0.000281620766,0.000385732074,0.00046685379
3.6,7.98055532e-06,7.05635508e-05,0.00016837558,0.000282319479,0.000388242126,0.000470812488
3.65,7.98679578e-06,7.06243419e-05,0.000168579905,0.00028297779,0.000390675388,0.000474704852
3.7,7.99295174e-06,7.06839593e-05,0.000168778278,0.000283599984,0.000393030471,0.000478531106
3.75,7.9990258e-06,7.07424497e-05,0.000168971035,0.00028418973,0.000395305136,0.000482291471
3.8,8.00502043e-06,7.0799857e-05,0.000169158487,0.000284750184,0.000397495922,0.00048598616
3.85,8.01093802e-06,7.08562232e-05,0.00016934092,0.000285284077,0.000399597775,0.000489615382
3.9,8.01678086e-06,7.09115876e-05,0.000169518597,0.000285793782,0.000401603936,0.000493179338
3.95,8.02255114e-06,7.09659878e-05,0.00016969176,0.000286281373,0.000403506572,0.000496678218
4.0,8.02825098e-06,7.10194593e-05,0.000169860637,0.000286748675,0.000405298464,0.000500112198
4.05,8.03388239e-06,7.1072036e-05,0.000170025436,0.000287197296,0.00040697529,0.000503481439
4.1,8.03944734e-06,7.11237499e-05,0.000170186352,0.000287628664,0.000408537216,0.000506786079
4.15,8.04494769e-06,7.11746316e-05,0.000170343568,0.000288044049,0.000409988848,0.000510026226
4.2,8.05038524e-06,7.12247102e-05,0.000170497251,0.000288444588,0.000411337891,0.000513201947
4.25,8.05576174e-06,7.12740134e-05,0.000170647562,0.000288831302,0.000412593514,0.000516313253
4.3,8.06107884e-06,7.13225677e-05,0.000170794649,0.00028920511,0.000413765095,0.000519360074
4.35,8.06633817e-06,7.13703983e-05,0.00017093865,0.000289566844,0.000414861491,0.000522342229
4.4,8.07154128e-06,7.14175293e-05,0.000171079698,0.000289917258,0.000415890718,0.000525259371
4.45,8.07668965e-06,7.14639838e-05,0.000171217915,0.000290257038,0.00041685986,0.000528110916
4.5,8.08178473e-06,7.15097837e-05,0.000171353417,0.00029058681,0.000417775112,0.000530895927
4.55,8.08682791e-06,7.15549503e-05,0.000171486314,0.000290907147,0.000418641866,0.000533612948
4.6,8.09182053e-06,7.15995035e-05,0.000171616709,0.000291218575,0.00041946481,0.000536259768
4.65,8.09676389e-06,7.16434629e-05,0.0001717447,0.000291521577,0.000420248024,0.000538833096
4.7,8.10165925e-06,7.16868468e-05,0.00017187038,0.000291816598,0.000420995075,0.000541328188
4.75,8.10650779e-06,7.1729673e-05,0.000171993837,0.000292104051,0.000421709087,0.000543738543
4.8,8.11131071e-06,7.17719586e-05,0.000172115152,0.000292384317,0.00042239281,0.00054605593
4.85,8.11606911e-06,7.18137199e-05,0.000172234407,0.000292657749,0.000423048672,0.000548271121
4.9,8.1207841e-06,7.18549727e-05,0.000172351675,0.000292924676,0.000423678829,0.000550375497
4.95,8.12545672e-06,7.18957319e-05,0.000172467027,0.000293185406,0.000424285199,0.00055236307
5.0,8.130088e-06,7.19360121e-05,0.000172580533,0.000293440224,0.000424869496,0.000554231957
5.05,8.13467893e-06,7.19758272e-05,0.000172692256,0.000293689397,0.000425433259,0.00055598458
5.1,8.13923045e-06,7.20151907e-05,0.000172802259,0.000293933176,0.000425977872,0.00055762673
5.15,8.1437435e-06,7.20541153e-05,0.000172910599,0.000294171795,0.000426504587,0.000559166213
5.2,8.14821896e-06,7.20926136e-05,0.000173017334,0.000294405475,0.000427014537,0.000560611628
5.25,8.15265771e-06,7.21306975e-05,0.000173122517,0.000294634424,0.000427508752,0.000561971549
5.3,8.15706059e-06,7.21683784e-05,0.0001732262,0.000294858836,0.000427988172,0.000563254053
5.35,8.1614284e-06,7.22056675e-05,0.00017332843,0.000295078896,0.000428453654,0.000564466514
5.4,8.16576194e-06,7.22425755e-05,0.000173429256,0.000295294777,0.000428905986,0.000565615544
5.45,8.17006198e-06,7.22791127e-05,0.000173528723,0.000295506645,0.000429345889,0.000566707014
5.5,8.17432925e-06,7.23152889e-05,0.000173626872,0.000295714655,0.000429774029,0.000567746116
5.55,8.17856447e-06,7.23511139e-05,0.000173723747,0.000295918953,0.000430191022,0.000568737435
5.6,8.18276835e-06,7.23865968e-05,0.000173819386,0.00029611968,0.000430597434,0.000569685023
5.65,8.18694155e-06,7.24217467e-05,0.000173913827,0.000296316968,0.000430993794,0.000570592466
5.7,8.19108474e-06,7.24565721e-05,0.000174007107,0.000296510944,0.00043138059,0.000571462947
5.75,8.19519855e-06,7.24910813e-05,0.00017409926,0.000296701727,0.000431758277,0.000572299302
5.8,8.1992836e-06,7.25252825e-05,0.000174190321,0.000296889432,0.000432127282,0.000573104058
5.85,8.2033405e-06,7.25591833e-05,0.000174280322,0.000297074166,0.000432487999,0.000573879484
5.9,8.20736983e-06,7.25927914e-05,0.000174369294,0.000297256034,0.000432840801,0.000574627615
5.95,8.21137215e-06,7.2626114e-05,0.000174457267,0.000297435134,0.000433186035,0.000575350287
6.0,8.21534803e-06,7.26591582e-05,0.000174544269,0.00029761156,0.000433524028,0.00057604916
6.05,8.21929798e-06,7.26919307e-05,0.000174630329,0.000297785403,0.000433855086,0.000576725738
6.1,8.22322254e-06,7.27244382e-05,0.000174715472,0.000297956749,0.000434179499,0.000577381391
6.15,8.22712222e-06,7.2756687e-05,0.000174799726,0.00029812568,0.000434497538,0.000578017367
6.2,8.23099749e-06,7.27886833e-05,0.000174883114,0.000298292274,0.00043480946,0.000578634807
6.25,8.23484886e-06,7.2820433e-05,0.00017496566,0.000298456608,0.000435115508,0.000579234757
6.3,8.23867677e-06,7.28519421e-05,0.000175047387,0.000298618753,0.000435415912,0.000579818179
6.35,8.24248169e-06,7.2883216e-05,0.000175128318,0.000298778778,0.000435710888,0.000580385958
6.4,8.24626405e-06,7.29142603e-05,0.000175208474,0.000298936751,0.000436000644,0.000580938911
6.45,8.25002429e-06,7.29450801e-05,0.000175287876,0.000299092734,0.000436285373,0.000581477795
6.5,8.25376283e-06,7.29756807e-05,0.000175366543,0.00029924679,0.000436565263,0.000582003311
6.55,8.25748007e-06,7.30060669e-05,0.000175444495,0.000299398976,0.000436840489,0.000582516109
6.6,8.2611764e-06,7.30362435e-05,0.000175521751,0.000299549349,0.000437111219,0.000583016797
