vds,vb1,vb2,vb3,vb4,vb5,vb6
0.0,-0.0,-0.0,-0.0,-0.0,-0.0,-0.0
0.05,1.85191876e-07,5.38393188e-07,7.91105068e-07,9.78358414e-07,1.12075776e-06,1.23112483e-06
0.1,3.39297346e-07,1.04748878e-06,1.5554491e-06,1.93210877e-06,2.21870272e-06,2.44094191e-06
0.15,4.7127819e-07,1.53623994e-06,2.30197603e-06,2.87018687e-06,3.30276433e-06,3.63837579e-06
0.2,5.83430731e-07,2.00692814e-06,3.03295818e-06,3.79485695e-06,4.37520045e-06,4.82567948e-06
0.25,6.76391544e-07,2.46016059e-06,3.7489936e-06,4.70670899e-06,5.43659475e-06,6.00343179e-06
0.3,7.50415464e-07,2.89612423e-06,4.4502601e-06,5.60591278e-06,6.48711073e-06,7.1717914e-06
0.35,8.05770087e-07,3.31490049e-06,5.13682996e-06,6.4925326e-06,7.5268064e-06,8.33081149e-06
0.4,8.43115834e-07,3.71654418e-06,5.80874887e-06,7.36660621e-06,8.55571326e-06,9.48051879e-06
0.45,8.64574134e-07,4.10110338e-06,6.4660558e-06,8.22816461e-06,9.57385611e-06,1.06209333e-05
0.5,8.75287626e-07,4.4686244e-06,7.10878788e-06,9.07723707e-06,1.0581258e-05,1.17520733e-05
0.55,8.8119722e-07,4.81915305e-06,7.73698173e-06,9.91385234e-06,1.15779416e-05,1.28739567e-05
0.6,8.85345442e-07,5.15273498e-06,8.35067376e-06,1.0738039e-05,1.25639292e-05,1.39866012e-05
0.65,8.88719313e-07,5.46941583e-06,8.9499002e-06,1.15498255e-05,1.35392432e-05,1.50900244e-05
0.7,8.916469e-07,5.76924125e-06,9.5346972e-06,1.23492402e-05,1.45039058e-05,1.61842438e-05
0.75,8.94265975e-07,6.05225702e-06,1.01051007e-05,1.31363113e-05,1.54579393e-05,1.7269277e-05
0.8,8.96649236e-07,6.31850914e-06,1.06611467e-05,1.39110671e-05,1.64013658e-05,1.83451415e-05
0.85,8.98841911e-07,6.56804407e-06,1.12028709e-05,1.46735356e-05,1.73342073e-05,1.94118547e-05
0.9,9.00875312e-07,6.80090893e-06,1.1730309e-05,1.54237449e-05,1.8256486e-05,2.0469434e-05
0.95,9.02772651e-07,7.01715198e-06,1.22434966e-05,1.61617229e-05,1.91682236e-05,2.15178967e-05
1.0,9.04551922e-07,7.2168234e-06,1.2742469e-05,1.68874974e-05,2.00694422e-05,2.25572602e-05
1.05,9.06227511e-07,7.39997645e-06,1.32272617e-05,1.76010962e-05,2.09601636e-05,2.35875417e-05
1.1,9.07811185e-07,7.56666985e-06,1.36979098e-05,1.8302547e-05,2.18404094e-05,2.46087584e-05
1.15,9.09312729e-07,7.71697188e-06,1.41544485e-05,1.89918773e-05,2.27102015e-05,2.56209275e-05
1.2,9.10740393e-07,7.85096872e-06,1.45969129e-05,1.96691147e-05,2.35695615e-05,2.66240662e-05
1.25,9.12101214e-07,7.96878127e-06,1.50253378e-05,2.03342867e-05,2.4418511e-05,2.76181915e-05
1.3,9.13401248e-07,8.07060139e-06,1.54397581e-05,2.09874204e-05,2.52570714e-05,2.86033204e-05
1.35,9.14645748e-07,8.1567707e-06,1.58402086e-05,2.16285433e-05,2.60852644e-05,2.95794701e-05
1.4,9.15839307e-07,8.22794536e-06,1.6226724e-05,2.22576825e-05,2.69031112e-05,3.05466573e-05
1.45,9.16985965e-07,8.28537907e-06,1.65993388e-05,2.28748651e-05,2.77106333e-05,3.15048991e-05
1.5,9.18089293e-07,8.33118079e-06,1.69580877e-05,2.34801181e-05,2.8507852e-05,3.24542123e-05
1.55,9.19152468e-07,8.36809985e-06,1.73030051e-05,2.40734685e-05,2.92947884e-05,3.33946138e-05
1.6,9.20178326e-07,8.3987503e-06,1.76341257e-05,2.4654943e-05,3.00714638e-05,3.43261202e-05
1.65,9.21169412e-07,8.42503854e-06,1.79514839e-05,2.52245686e-05,3.08378993e-05,3.52487485e-05
1.7,9.22128019e-07,8.44817625e-06,1.82551144e-05,2.57823719e-05,3.15941159e-05,3.61625152e-05
1.75,9.23056218e-07,8.46892066e-06,1.85450517e-05,2.63283795e-05,3.23401346e-05,3.70674371e-05
1.8,9.23955888e-07,8.48776697e-06,1.8821331e-05,2.6862618e-05,3.30759765e-05,3.79635308e-05
1.85,9.2482874e-07,8.50505867e-06,1.90839873e-05,2.73851137e-05,3.38016623e-05,3.88508127e-05
1.9,9.25676334e-07,8.52104665e-06,1.93330564e-05,2.78958933e-05,3.4517213e-05,3.97292996e-05
1.95,9.265001e-07,8.53592169e-06,1.95685749e-05,2.83949828e-05,3.52226492e-05,4.05990079e-05
2.0,9.27301347e-07,8.54983338e-06,1.97905804e-05,2.88824086e-05,3.59179918e-05,4.14599539e-05
2.05,9.28081283e-07,8.56290181e-06,1.99991124e-05,2.93581968e-05,3.66032613e-05,4.23121542e-05
2.1,9.28841019e-07,8.57522524e-06,2.01942136e-05,2.98223736e-05,3.72784784e-05,4.31556252e-05
2.15,9.29581584e-07,8.58688524e-06,2.03759313e-05,3.02749648e-05,3.79436636e-05,4.39903831e-05
2.2,9.3030393e-07,8.59795043e-06,2.05443211e-05,3.07159965e-05,3.85988375e-05,4.48164442e-05
2.25,9.31008941e-07,8.60847912e-06,2.06994526e-05,3.11454946e-05,3.92440204e-05,4.56338248e-05
2.3,9.31697439e-07,8.61852134e-06,2.08414204e-05,3.15634847e-05,3.98792327e-05,4.64425411e-05
2.35,9.3237019e-07,8.62812036e-06,2.09703649e-05,3.19699926e-05,4.05044948e-05,4.72426092e-05
2.4,9.33027908e-07,8.63731388e-06,2.10865104e-05,3.2365044e-05,4.11198269e-05,4.80340454e-05
2.45,9.33671262e-07,8.64613492e-06,2.11902311e-05,3.27486644e-05,4.17252492e-05,4.88168656e-05
2.5,9.34300877e-07,8.65461264e-06,2.12821465e-05,3.31208794e-05,4.2320782e-05,4.95910859e-05
2.55,9.34917339e-07,8.66277285e-06,2.13632107e-05,3.34817143e-05,4.29064452e-05,5.03567224e-05
2.6,9.355212e-07,8.67063856e-06,2.14347041e-05,3.38311946e-05,4.34822589e-05,5.1113791e-05
2.65,9.36112978e-07,8.67823037e-06,2.14980753e-05,3.41693456e-05,4.40482432e-05,5.18623076e-05
2.7,9.36693159e-07,8.68556675e-06,2.15547162e-05,3.44961925e-05,4.4604418e-05,5.26022881e-05
2.75,9.37262205e-07,8.6926644e-06,2.16058162e-05,3.48117604e-05,4.51508031e-05,5.33337484e-05
2.8,9.3782055e-07,8.69953841e-06,2.16523281e-05,3.51160745e-05,4.56874184e-05,5.40567043e-05
2.85,9.38368603e-07,8.70620248e-06,2.16949981e-05,3.54091599e-05,4.62142835e-05,5.47711715e-05
2.9,9.38906752e-07,8.71266909e-06,2.17344107e-05,3.56910415e-05,4.67314184e-05,5.54771657e-05
2.95,9.39435366e-07,8.71894967e-06,2.17710284e-05,3.59617443e-05,4.72388425e-05,5.61747028e-05
3.0,9.39954792e-07,8.72505465e-06,2.18052224e-05,3.62212933e-05,4.77365755e-05,5.68637982e-05
3.05,9.40465361e-07,8.73099364e-06,2.18372944e-05,3.64697132e-05,4.82246369e-05,5.75444677e-05
3.1,9.40967388e-07,8.73677547e-06,2.1867493e-05,3.6707029e-05,4.87030463e-05,5.82167267e-05
3.15,9.41461169e-07,8.74240831e-06,2.18960255e-05,3.69332654e-05,4.91718229e-05,5.88805909e-05
3.2,9.41946991e-07,8.7478997e-06,2.19230666e-05,3.71484476e-05,4.96309863e-05,5.95360758e-05
3.25,9.42425122e-07,8.75325663e-06,2.19487647e-05,3.73526006e-05,5.00805556e-05,6.01831967e-05
3.3,9.42895822e-07,8.7584856e-06,2.19732471e-05,3.75457503e-05,5.05205502e-05,6.08219691e-05
3.35,9.43359334e-07,8.76359265e-06,2.19966238e-05,3.7727924e-05,5.09509891e-05,6.14524083e-05
3.4,9.43815894e-07,8.76858343e-06,2.20189904e-05,3.78991521e-05,5.13718915e-05,6.20745298e-05
3.45,9.44265726e-07,8.7734632e-06,2.20404308e-05,3.80594727e-05,5.17832764e-05,6.26883488e-05
3.5,9.44709043e-07,8.77823689e-06,2.20610186e-05,3.82089399e-05,5.21851628e-05,6.32938806e-05
3.55,9.45146051e-07,8.7829091e-06,2.20808192e-05,3.83476437e-05,5.25775694e-05,6.38911403e-05
3.6,9.45576945e-07,8.78748416e-06,2.20998905e-05,3.84757448e-05,5.29605151e-05,6.44801432e-05
3.65,9.46001912e-07,8.79196616e-06,2.21182845e-05,3.85935287e-05,5.33340186e-05,6.50609044e-05
3.7,9.46421133e-07,8.79635891e-06,2.21360477e-05,3.87014633e-05,5.36980983e-05,6.56334391e-05
3.75,9.46834778e-07,8.80066602e-06,2.21532218e-05,3.8800222e-05,5.40527727e-05,6.61977622e-05
3.8,9.47243013e-07,8.80489089e-06,2.21698449e-05,3.88906427e-05,5.439806e-05,6.67538888e-05
3.85,9.47645997e-07,8.80903675e-06,2.21859511e-05,3.89736378e-05,5.47339783e-05,6.73018339e-05
3.9,9.4804388e-07,8.81310662e-06,2.22015717e-05,3.90501024e-05,5.50605454e-05,6.78416124e-05
3.95,9.4843681e-07,8.81710339e-06,2.22167353e-05,3.91208547e-05,5.53777789e-05,6.83732392e-05
4.0,9.48824927e-07,8.82102978e-06,2.22314677e-05,3.91866116e-05,5.5685696e-05,6.88967291e-05
4.05,9.49208364e-07,8.82488837e-06,2.22457931e-05,3.92479872e-05,5.59843135e-05,6.94120971e-05
4.1,9.49587253e-07,8.82868163e-06,2.22597332e-05,3.93055022e-05,5.62736473e-05,6.99193578e-05
4.15,9.49961717e-07,8.83241188e-06,2.22733085e-05,3.93595975e-05,5.6553713e-05,7.04185259e-05
4.2,9.50331876e-07,8.83608134e-06,2.22865376e-05,3.94106466e-05,5.68245247e-05,7.09096162e-05
4.25,9.50697846e-07,8.83969212e-06,2.22994379e-05,3.9458968e-05,5.70860953e-05,7.13926433e-05
4.3,9.51059739e-07,8.84324624e-06,2.23120255e-05,3.95048339e-05,5.73384356e-05,7.18676217e-05
4.35,9.51417662e-07,8.8467456e-06,2.23243153e-05,3.95484791e-05,5.75815535e-05,7.2334566e-05
4.4,9.51771717e-07,8.85019205e-06,2.23363213e-05,3.95901066e-05,5.78154528e-05,7.27934906e-05
4.45,9.52122006e-07,8.85358732e-06,2.23480564e-05,3.96298934e-05,5.80401318e-05,7.324441e-05
4.5,9.52468623e-07,8.85693309e-06,2.23595329e-05,3.96679942e-05,5.82555803e-05,7.36873385e-05
4.55,9.52811663e-07,8.86023094e-06,2.23707621e-05,3.97045455e-05,5.84617767e-05,7.41222904e-05
4.6,9.53151213e-07,8.86348241e-06,2.23817546e-05,3.97396678e-05,5.86586834e-05,7.45492799e-05
4.65,9.53487362e-07,8.86668895e-06,2.23925206e-05,3.97734683e-05,5.88462422e-05,7.49683211e-05
4.7,9.53820192e-07,8.86985196e-06,2.24030694e-05,3.98060424e-05,5.90243717e-05,7.5379428e-05
4.75,9.54149785e-07,8.87297278e-06,2.24134099e-05,3.9837476e-05,5.91929714e-05,7.57826147e-05
4.8,9.54476218e-07,8.87605269e-06,2.24235505e-05,3.98678458e-05,5.93519417e-05,7.61778948e-05
4.85,9.54799567e-07,8.87909292e-06,2.2433499e-05,3.98972216e-05,5.95012291e-05,7.65652822e-05
4.9,9.55119904e-07,8.88209466e-06,2.2443263e-05,3.99256661e-05,5.96408915e-05,7.69447902e-05
4.95,9.55437302e-07,8.88505903e-06,2.24528495e-05,3.99532367e-05,5.97711616e-05,7.73164324e-05
5.0,9.55751827e-07,8.88798714e-06,2.24622651e-05,3.99799853e-05,5.98924697e-05,7.76802217e-05
5.05,9.56063546e-07,8.89088002e-06,2.24715163e-05,4.00059595e-05,6.00054122e-05,7.80361711e-05
5.1,9.56372523e-07,8.89373867e-06,2.24806091e-05,4.0031203e-05,6.01106839e-05,7.83842931e-05
5.15,9.5667882e-07,8.89656408e-06,2.24895491e-05,4.00557559e-05,6.02090073e-05,7.87245998e-05
5.2,9.56982497e-07,8.89935717e-06,2.24983418e-05,4.00796549e-05,6.03010802e-05,7.90571028e-05
5.25,9.57283612e-07,8.90211883e-06,2.25069924e-05,4.01029342e-05,6.03875461e-05,7.93818131e-05
5.3,9.57582222e-07,8.90484993e-06,2.25155058e-05,4.01256253e-05,6.04689825e-05,7.96987409e-05
5.35,9.57878382e-07,8.90755129e-06,2.25238866e-05,4.01477572e-05,6.05458994e-05,8.00078951e-05
5.4,9.58172144e-07,8.91022373e-06,2.25321395e-05,4.01693572e-05,6.06187439e-05,8.03092836e-05
5.45,9.58463561e-07,8.91286801e-06,2.25402686e-05,4.01904504e-05,6.06879067e-05,8.0602912e-05
5.5,9.58752681e-07,8.91548487e-06,2.2548278e-05,4.02110603e-05,6.07537291e-05,8.08887838e-05
5.55,9.59039553e-07,8.91807503e-06,2.25561717e-05,4.0231209e-05,6.081651e-05,8.11668987e-05
5.6,9.59324225e-07,8.92063919e-06,2.25639533e-05,4.02509169e-05,6.08765116e-05,8.1437252e-05
5.65,9.59606742e-07,8.92317802e-06,2.25716264e-05,4.02702033e-05,6.09339652e-05,8.16998327e-05
5.7,9.59887148e-07,8.92569215e-06,2.25791945e-05,4.02890862e-05,6.09890749e-05,8.19546206e-05
5.75,9.60165487e-07,8.92818222e-06,2.25866608e-05,4.03075827e-05,6.1042022e-05,8.22015833e-05
5.8,9.60441799e-07,8.93064882e-06,2.25940284e-05,4.03257086e-05,6.10929681e-05,8.24406711e-05
5.85,9.60716127e-07,8.93309253e-06,2.26013004e-05,4.0343479e-05,6.11420573e-05,8.26718105e-05
5.9,9.60988509e-07,8.93551392e-06,2.26084796e-05,4.03609082e-05,6.11894194e-05,8.28948961e-05
5.95,9.61258984e-07,8.93791354e-06,2.26155688e-05,4.03780094e-05,6.12351707e-05,8.31097812e-05
6.0,9.61527588e-07,8.9402919e-06,2.26225707e-05,4.03947955e-05,6.12794167e-05,8.33162706e-05
6.05,9.6179436e-07,8.94264952e-06,2.26294878e-05,4.04112784e-05,6.13222528e-05,8.35141203e-05
6.1,9.62059333e-07,8.94498689e-06,2.26363226e-05,4.04274694e-05,6.13637656e-05,8.37030535e-05
6.15,9.62322542e-07,8.94730449e-06,2.26430775e-05,4.04433794e-05,6.14040342e-05,8.38828015e-05
6.2,9.6258402e-07,8.94960277e-06,2.26497546e-05,4.04590186e-05,6.14431308e-05,8.40531686e-05
6.25,9.628438e-07,8.95188218e-06,2.26563562e-05,4.04743967e-05,6.14811216e-05,8.42141038e-05
6.3,9.63101915e-07,8.95414316e-06,2.26628844e-05,4.0489523e-05,6.15180673e-05,8.43657479e-05
6.35,9.63358393e-07,8.95638612e-06,2.26693413e-05,4.05044063e-05,6.15540239e-05,8.45084368e-05
6.4,9.63613267e-07,8.95861148e-06,2.26757287e-05,4.0519055e-05,6.15890431e-05,8.46426609e-05
6.45,9.63866564e-07,8.96081962e-06,2.26820485e-05,4.05334771e-05,6.16231725e-05,8.47690061e-05
6.5,9.64118313e-07,8.96301092e-06,2.26883027e-05,4.05476802e-05,6.16564566e-05,8.48880961e-05
6.55,9.64368542e-07,8.96518577e-06,2.26944928e-05,4.05616717e-05,6.16889363e-05,8.50005491e-05
6.6,9.64617279e-07,8.96734451e-06,2.27006206e-05,4.05754584e-05,6.17206499e-05,8.51069513e-05
