vds,vb1,vb2,vb3,vb4,vb5,vb6
0.0,-0.0,-0.0,-0.0,-0.0,-0.0,-0.0
0.05,2.08528036e-06,9.11895732e-06,1.43001016e-05,1.81944245e-05,2.11606142e-05,2.34386817e-05
0.1,3.82556475e-06,1.79084192e-05,2.83110948e-05,3.61358971e-05,4.20997871e-05,4.66832759e-05
0.15,5.22218699e-06,2.63693524e-05,4.2033823e-05,5.38251111e-05,6.28180796e-05,6.97342352e-05
0.2,6.27745272e-06,3.45027195e-05,5.54691258e-05,7.12627567e-05,8.33160499e-05,9.25920097e-05
0.25,6.99747663e-06,4.23094798e-05,6.86178391e-05,8.84495212e-05,0.000103594254,0.000115257048
0.3,7.40581561e-06,4.97905894e-05,8.14807958e-05,0.00010538609,0.000123653248,0.000137729798
0.35,7.58467647e-06,5.69470018e-05,9.40588256e-05,0.000122073145,0.000143493582,0.000160010704
0.4,7.66309327e-06,6.37796677e-05,0.000106352755,0.000138511366,0.000163115808,0.000182100212
0.45,7.71171458e-06,7.02895357e-05,0.000118363407,0.000154701431,0.000182520475,0.000203998764
0.5,7.74966044e-06,7.64775526e-05,0.000130091603,0.000170644014,0.000201708129,0.000225706803
0.55,7.78204218e-06,8.23446644e-05,0.000141538158,0.000186339789,0.000220679316,0.000247224769
0.6,7.81073694e-06,8.78918168e-05,0.000152703887,0.000201789426,0.000239434579,0.0002685531
0.65,7.83667108e-06,9.31199574e-05,0.000163589602,0.000216993592,0.000257974459,0.000289692235
0.7,7.86040244e-06,9.80300371e-05,0.000174196109,0.000231952953,0.000276299497,0.000310642609
0.75,7.88231041e-06,0.000102623014,0.000184524214,0.000246668171,0.00029441023,0.000331404658
0.8,7.90267293e-06,0.000106899859,0.000194574718,0.000261139907,0.000312307194,0.000351978816
0.85,7.92170347e-06,0.000110861563,0.000204348421,0.00027536882,0.000329990923,0.000372365514
0.9,7.93957133e-06,0.000114509153,0.000213846118,0.000289355564,0.000347461951,0.000392565184
0.95,7.95641397e-06,0.00011784372,0.000223068602,0.000303100794,0.000364720808,0.000412578255
1.0,7.97234494e-06,0.000120866462,0.000232016663,0.00031660516,0.000381768022,0.000432405156
1.05,7.98745943e-06,0.000123578779,0.000240691089,0.000329869311,0.000398604121,0.000452046314
1.1,8.00183811e-06,0.000125982462,0.000249092664,0.000342893894,0.000415229631,0.000471502154
1.15,8.01555009e-06,0.000128080096,0.000257222169,0.000355679553,0.000431645075,0.000490773101
1.2,8.02865501e-06,0.000129875967,0.000265080385,0.000368226928,0.000447850975,0.000509859578
1.25,8.0412048e-06,0.000131378112,0.000272668088,0.000380536661,0.000463847851,0.000528762008
1.3,8.05324489e-06,0.000132602564,0.000279986051,0.000392609388,0.000479636223,0.000547480809
1.35,8.06481536e-06,0.000133579678,0.000287035047,0.000404445743,0.000495216606,0.000566016402
1.4,8.07595167e-06,0.000134356472,0.000293815846,0.00041604636,0.000510589516,0.000584369205
1.45,8.08668541e-06,0.000134986176,0.000300329214,0.000427411869,0.000525755466,0.000602539635
1.5,8.09704482e-06,0.000135512824,0.000306575918,0.000438542898,0.000540714968,0.000620528106
1.55,8.10705526e-06,0.000135966187,0.000312556723,0.000449440072,0.000555468532,0.000638335034
1.6,8.11673959e-06,0.000136365172,0.000318272392,0.000460104015,0.000570016666,0.00065596083
1.65,8.12611849e-06,0.000136722063,0.000323723689,0.000470535349,0.000584359877,0.000673405907
1.7,8.13521074e-06,0.000137045251,0.000328911379,0.000480734692,0.00059849867,0.000690670675
1.75,8.14403343e-06,0.000137340749,0.000333836229,0.000490702661,0.000612433547,0.000707755544
1.8,8.15260215e-06,0.000137613037,0.000338499011,0.000500439871,0.000626165011,0.00072466092
1.85,8.16093122e-06,0.000137865562,0.000342900505,0.000509946934,0.000639693562,0.000741387212
1.9,8.16903376e-06,0.000138101037,0.000347041504,0.000519224459,0.000653019697,0.000757934824
1.95,8.17692183e-06,0.000138321645,0.000350922827,0.000528273055,0.000666143914,0.00077430416
2.0,8.1846066e-06,0.000138529167,0.000354545331,0.000537093326,0.000679066707,0.000790495624
2.05,8.19209836e-06,0.00013872508,0.000357909945,0.000545685876,0.000691788569,0.000806509618
2.1,8.19940666e-06,0.000138910622,0.000361017729,0.000554051305,0.000704309993,0.000822346541
2.15,8.20654036e-06,0.000139086841,0.000363869995,0.000562190211,0.000716631468,0.000838006793
2.2,8.21350772e-06,0.000139254632,0.000366468555,0.000570103189,0.000728753482,0.000853490773
2.25,8.22031641e-06,0.000139414769,0.000368816249,0.000577790832,0.000740676523,0.000868798877
2.3,8.22697361e-06,0.00013956792,0.000370918012,0.00058525373,0.000752401075,0.000883931502
2.35,8.23348602e-06,0.000139714673,0.000372782731,0.000592492468,0.000763927622,0.00089888904
2.4,8.23985992e-06,0.000139855541,0.000374425519,0.000599507631,0.000775256646,0.000913671887
2.45,8.2461012e-06,0.00013999098,0.000375868687,0.000606299796,0.000786388626,0.000928280434
2.5,8.25221539e-06,0.000140121393,0.000377139549,0.00061286954,0.000797324041,0.000942715071
2.55,8.2582077e-06,0.00014024714,0.000378266047,0.000619217431,0.000808063368,0.000956976189
2.6,8.26408303e-06,0.000140368546,0.000379273207,0.000625344033,0.000818607082,0.000971064177
2.65,8.26984598e-06,0.000140485899,0.000380181749,0.000631249899,0.000828955655,0.000984979421
2.7,8.27550093e-06,0.000140599463,0.000381008217,0.000636935575,0.00083910956,0.000998722308
2.75,8.28105198e-06,0.000140709476,0.000381765681,0.000642401591,0.000849069266,0.00101229322
2.8,8.28650305e-06,0.000140816153,0.000382464497,0.000647648459,0.000858835242,0.00102569255
2.85,8.29185782e-06,0.000140919691,0.000383112939,0.000652676664,0.000868407952,0.00103892067
2.9,8.29711979e-06,0.000141020271,0.000383717692,0.000657486655,0.000877787862,0.00105197797
2.95,8.30229228e-06,0.000141118057,0.000384284216,0.000662078827,0.000886975432,0.00106486482
3.0,8.30737844e-06,0.000141213202,0.000384817024,0.000666453494,0.000895971124,0.00107758161
3.05,8.31238128e-06,0.000141305845,0.000385319881,0.000670610849,0.000904775394,0.00109012871
3.1,8.31730364e-06,0.000141396115,0.00038579596,0.000674550905,0.000913388699,0.0011025065
3.15,8.32214824e-06,0.000141484133,0.000386247961,0.000678273404,0.000921811489,0.00111471535
3.2,8.32691768e-06,0.000141570009,0.000386678193,0.000681777692,0.000930044216,0.00112675565
3.25,8.3316144e-06,0.000141653845,0.000387088653,0.000685062587,0.000938087325,0.00113862776
3.3,8.33624078e-06,0.000141735739,0.000387481074,0.000688126336,0.000945941259,0.00115033205
3.35,8.34079907e-06,0.000141815779,0.000387856973,0.00069096692,0.000953606457,0.0011618689
3.4,8.34529139e-06,0.00014189405,0.000388217683,0.000693583159,0.000961083353,0.00117323867
3.45,8.34971983e-06,0.000141970629,0.000388564383,0.000695976884,0.000968372374,0.00118444174
3.5,8.35408633e-06,0.000142045589,0.000388898118,0.000698155442,0.000975473942,0.00119547846
3.55,8.35839279e-06,0.000142119,0.000389219824,0.000700132753,0.000982388468,0.00120634921
3.6,8.362641e-06,0.000142190927,0.000389530337,0.00070192787,0.000989116354,0.00121705435
3.65,8.36683269e-06,0.00014226143,0.00038983041,0.000703562049,0.000995657987,0.00122759424
3.7,8.37096952e-06,0.000142330566,0.000390120721,0.000705056094,0.00100201374,0.00123796925
3.75,8.37505309e-06,0.000142398391,0.000390401887,0.000706428821,0.00100818395,0.00124817973
3.8,8.37908491e-06,0.000142464954,0.000390674466,0.000707696509,0.00101416894,0.00125822605
3.85,8.38306645e-06,0.000142530305,0.000390938968,0.000708872936,0.00101996898,0.00126810855
3.9,8.38699913e-06,0.00014259449,0.00039119586,0.000709969656,0.00102558429,0.0012778276
3.95,8.39088428e-06,0.00014265755,0.000391445568,0.000710996347,0.00103101498,0.00128738355
4.0,8.39472323e-06,0.000142719529,0.000391688484,0.000711961133,0.00103626109,0.00129677674
4.05,8.39851721e-06,0.000142780465,0.000391924971,0.000712870871,0.00104132244,0.00130600754
4.1,8.40226744e-06,0.000142840395,0.000392155361,0.000713731379,0.00104619865,0.00131507628
4.15,8.40597508e-06,0.000142899354,0.000392379965,0.000714547624,0.00105088895,0.00132398332
4.2,8.40964124e-06,0.000142957377,0.000392599067,0.000715323878,0.00105539207,0.00133272899
4.25,8.41326701e-06,0.000143014495,0.000392812935,0.000716063833,0.00105970595,0.00134131363
4.3,8.41685342e-06,0.000143070738,0.000393021816,0.0007167707,0.00106382749,0.00134973758
4.35,8.42040147e-06,0.000143126137,0.000393225941,0.000717447288,0.00106775215,0.00135800118
4.4,8.42391214e-06,0.000143180718,0.000393425525,0.000718096067,0.00107147379,0.00136610473
4.45,8.42738636e-06,0.000143234509,0.000393620771,0.00071871922,0.00107498488,0.00137404858
4.5,8.43082502e-06,0.000143287534,0.000393811868,0.000719318684,0.00107827776,0.00138183303
4.55,8.43422899e-06,0.000143339819,0.000393998993,0.000719896185,0.00108134699,0.00138945838
4.6,8.43759913e-06,0.000143391386,0.000394182313,0.000720453271,0.00108419219,0.00139692494
4.65,8.44093624e-06,0.000143442257,0.000394361985,0.000720991332,0.00108681975,0.00140423299
4.7,8.4442411e-06,0.000143492454,0.000394538158,0.000721511619,0.00108924244,0.00141138279
4.75,8.44751448e-06,0.000143541998,0.00039471097,0.000722015268,0.00109147729,0.00141837459
4.8,8.45075711e-06,0.000143590908,0.000394880554,0.000722503308,0.00109354301,0.00142520862
4.85,8.45396971e-06,0.000143639203,0.000395047035,0.000722976678,0.0010954581,0.00143188507
4.9,8.45715295e-06,0.000143686901,0.00039521053,0.000723436232,0.00109723968,0.00143840408
4.95,8.46030751e-06,0.000143734019,0.000395371151,0.000723882756,0.00109890302,0.00144476573
5.0,8.46343403e-06,0.000143780574,0.000395529005,0.000724316969,0.00110046148,0.00145097005
5.05,8.46653313e-06,0.000143826582,0.000395684192,0.000724739534,0.0011019266,0.00145701692
5.1,8.46960543e-06,0.000143872059,0.000395836808,0.000725151062,0.00110330834,0.00146290611
5.15,8.4726515e-06,0.000143917019,0.000395986944,0.000725552119,0.00110461528,0.00146863717
5.2,8.47567193e-06,0.000143961477,0.000396134687,0.000725943227,0.00110585482,0.00147420937
5.25,8.47866725e-06,0.000144005446,0.000396280119,0.000726324874,0.00110703338,0.00147962156
5.3,8.481638e-06,0.000144048939,0.000396423319,0.000726697512,0.00110815652,0.00148487203
5.35,8.48458471e-06,0.00014409197,0.000396564362,0.000727061561,0.00110922914,0.00148995827
5.4,8.48750787e-06,0.000144134551,0.000396703319,0.000727417415,0.00111025549,0.00149487661
5.45,8.49040798e-06,0.000144176694,0.00039684026,0.000727765443,0.00111123936,0.0014996219
5.5,8.49328551e-06,0.000144218409,0.00039697525,0.000728105988,0.00111218407,0.00150418709
5.55,8.49614093e-06,0.000144259708,0.00039710835,0.000728439373,0.00111309259,0.00150856297
5.6,8.49897467e-06,0.000144300602,0.000397239622,0.000728765903,0.00111396757,0.00151273847
5.65,8.50178717e-06,0.000144341101,0.000397369123,0.000729085863,0.00111481136,0.00151670183
5.7,8.50457886e-06,0.000144381216,0.000397496906,0.000729399522,0.00111562611,0.00152044274
5.75,8.50735015e-06,0.000144420954,0.000397623026,0.000729707133,0.00111641374,0.00152395513
5.8,8.51010144e-06,0.000144460327,0.000397747533,0.000730008935,0.00111717597,0.00152723913
5.85,8.51283311e-06,0.000144499342,0.000397870475,0.000730305156,0.0011179144,0.00153030159
5.9,8.51554554e-06,0.000144538008,0.000397991898,0.00073059601,0.00111863046,0.00153315477
5.95,8.5182391e-06,0.000144576335,0.000398111847,0.000730881698,0.00111932545,0.00153581433
6.0,8.52091415e-06,0.000144614329,0.000398230366,0.000731162415,0.00112000059,0.00153829732
6.05,8.52357104e-06,0.000144652,0.000398347496,0.000731438341,0.00112065698,0.00154062063
6.1,8.5262101e-06,0.000144689353,0.000398463275,0.000731709652,0.00112129562,0.00154280018
6.15,8.52883166e-06,0.000144726398,0.000398577743,0.000731976511,0.00112191745,0.00154485047
6.2,8.53143605e-06,0.00014476314,0.000398690936,0.000732239076,0.00112252335,0.00154678444
6.25,8.53402357e-06,0.000144799587,0.000398802889,0.000732497495,0.00112311411,0.00154861354
6.3,8.53659454e-06,0.000144835746,0.000398913637,0.000732751913,0.00112369047,0.00155034783
6.35,8.53914924e-06,0.000144871622,0.000399023213,0.000733002464,0.00112425313,0.00155199615
6.4,8.54168798e-06,0.000144907223,0.000399131647,0.000733249278,0.00112480273,0.00155356626
6.45,8.54421102e-06,0.000144942555,0.000399238971,0.000733492479,0.00112533987,0.00155506497
6.5,8.54671864e-06,0.000144977622,0.000399345214,0.000733732185,0.00112586511,0.00155649831
6.55,8.54921111e-06,0.000145012431,0.000399450404,0.00073396851,0.00112637898,0.00155787158
6.6,8.5516887e-06,0.000145046988,0.000399554568,0.000734201561,0.00112688198,0.00155918952
