vds,vb1,vb2,vb3,vb4,vb5,vb6
0.0,-0.0,-0.0,-0.0,-0.0,-0.0,-0.0
0.05,1.38568518e-06,5.76734455e-06,8.95146069e-06,1.13129949e-05,1.30759144e-05,1.43928032e-05
0.1,2.54603307e-06,1.1314476e-05,1.7702928e-05,2.24461016e-05,2.59909577e-05,2.86422426e-05
0.15,3.48247244e-06,1.66427142e-05,2.62555893e-05,3.3400319e-05,3.87459515e-05,4.27489882e-05
0.2,4.19705981e-06,2.17533683e-05,3.46106223e-05,4.41766388e-05,5.13417118e-05,5.67137055e-05
0.25,4.69433069e-06,2.66477377e-05,4.27691953e-05,5.47760451e-05,6.37790486e-05,7.05370558e-05
0.3,4.99017116e-06,3.13271117e-05,5.07324675e-05,6.51995147e-05,7.60587667e-05,8.42196963e-05
0.35,5.13787334e-06,3.57927702e-05,5.85015889e-05,7.54480175e-05,8.81816654e-05,9.776228e-05
0.4,5.21863253e-06,4.00459839e-05,6.60777007e-05,8.55225158e-05,0.000100148539,0.000111165456
0.45,5.27643897e-06,4.40880144e-05,7.3461935e-05,9.54239653e-05,0.000111960175,0.00012442987
0.5,5.32391319e-06,4.79201152e-05,8.06554149e-05,0.000105153314,0.000123617357,0.000137556162
0.55,5.36501656e-06,5.15435317e-05,8.76592551e-05,0.000114711505,0.000135120863,0.00015054497
0.6,5.40152036e-06,5.49595026e-05,9.44745612e-05,0.000124099471,0.000146471466,0.000163396927
0.65,5.43444636e-06,5.81692611e-05,0.000101102431,0.000133318141,0.000157669934,0.000176112663
0.7,5.46447344e-06,6.11740366e-05,0.000107543952,0.000142368436,0.000168717028,0.000188692802
0.75,5.49208966e-06,6.39750584e-05,0.000113800205,0.00015125127,0.000179613506,0.000201137967
0.8,5.51766318e-06,6.65735609e-05,0.000119872261,0.000159967551,0.00019036012,0.000213448775
0.85,5.54148088e-06,6.89707925e-05,0.000125761184,0.00016851818,0.000200957617,0.00022562584
0.9,5.5637717e-06,7.11680336e-05,0.000131468029,0.000176904052,0.00021140674,0.000237669773
0.95,5.58472173e-06,7.31666303e-05,0.000136993842,0.000185126055,0.000221708225,0.00024958118
1.0,5.60448455e-06,7.49680676e-05,0.000142339661,0.000193185069,0.000231862806,0.000261360665
1.05,5.6231885e-06,7.65741346e-05,0.000147506515,0.000201081971,0.000241871209,0.000273008826
1.1,5.64094203e-06,7.79873309e-05,0.000152495426,0.000208817629,0.000251734157,0.000284526258
1.15,5.65783762e-06,7.92118817e-05,0.000157307405,0.000216392906,0.000261452368,0.000295913555
1.2,5.67395481e-06,8.02560541e-05,0.000161943455,0.000223808657,0.000271026555,0.000307171304
1.25,5.68936252e-06,8.11357631e-05,0.000166404569,0.000231065733,0.000280457426,0.00031830009
1.3,5.70412089e-06,8.18758445e-05,0.000170691728,0.000238164977,0.000289745684,0.000329300495
1.35,5.71828267e-06,8.25048326e-05,0.000174805903,0.000245107226,0.00029889203,0.000340173095
1.4,5.73189446e-06,8.3047958e-05,0.000178748049,0.00025189331,0.000307897156,0.000350918466
1.45,5.74499756e-06,8.35245097e-05,0.000182519102,0.000258524055,0.000316761753,0.000361537177
1.5,5.75762879e-06,8.39485355e-05,0.000186119976,0.000265000278,0.000325486506,0.000372029798
1.55,5.76982112e-06,8.4330268e-05,0.00018955155,0.000271322791,0.000334072095,0.00038239689
1.6,5.78160416e-06,8.46772918e-05,0.000192814651,0.000277492399,0.000342519196,0.000392639015
1.65,5.79300464e-06,8.49953504e-05,0.000195910032,0.000283509899,0.00035082848,0.00040275673
1.7,5.80404675e-06,8.52888847e-05,0.000198838313,0.000289376081,0.000359000615,0.000412750588
1.75,5.81475245e-06,8.55613939e-05,0.000201599897,0.00029509173,0.000367036262,0.000422621141
1.8,5.82514177e-06,8.58156816e-05,0.000204194798,0.00030065762,0.00037493608,0.000432368934
1.85,5.83523298e-06,8.60540278e-05,0.000206622356,0.000306074515,0.000382700722,0.000441994512
1.9,5.84504285e-06,8.62783109e-05,0.000208880749,0.000311343173,0.000390330836,0.000451498416
1.95,5.85458676e-06,8.64900964e-05,0.000210966425,0.000316464335,0.000397827067,0.000460881182
2.0,5.86387889e-06,8.66907026e-05,0.000212874092,0.000321438732,0.000405190054,0.000470143344
2.05,5.8729323e-06,8.68812501e-05,0.000214598898,0.000326267076,0.000412420431,0.000479285434
2.1,5.88175911e-06,8.70626992e-05,0.000216141563,0.000330950056,0.00041951883,0.000488307978
2.15,5.89037052e-06,8.7235879e-05,0.00021751266,0.000335488332,0.000426485875,0.000497211502
2.2,5.89877694e-06,8.74015104e-05,0.000218731188,0.000339882523,0.000433322185,0.000505996525
2.25,5.90698808e-06,8.75602239e-05,0.000219819256,0.000344133192,0.000440028376,0.000514663566
2.3,5.91501295e-06,8.77125746e-05,0.000220797747,0.000348240817,0.000446605057,0.00052321314
2.35,5.92286001e-06,8.7859053e-05,0.000221684489,0.00035220575,0.000453052831,0.000531645757
2.4,5.93053713e-06,8.80000953e-05,0.00022249405,0.000356028153,0.000459372294,0.000539961927
2.45,5.9380517e-06,8.81360908e-05,0.000223238159,0.000359707876,0.000465564035,0.000548162153
2.5,5.94541067e-06,8.82673885e-05,0.000223926246,0.000363244275,0.000471628637,0.000556246938
2.55,5.95262055e-06,8.83943027e-05,0.000224565946,0.000366635889,0.000477566671,0.00056421678
2.6,5.95968746e-06,8.85171169e-05,0.000225163485,0.000369879915,0.000483378698,0.000572072173
2.65,5.96661718e-06,8.86360883e-05,0.000225723995,0.000372971397,0.000489065268,0.00057981361
2.7,5.97341515e-06,8.87514507e-05,0.000226251743,0.000375902189,0.000494626912,0.000587441578
2.75,5.98008652e-06,8.88634174e-05,0.000226750309,0.000378660224,0.000500064143,0.000594956562
2.8,5.98663614e-06,8.89721833e-05,0.000227222728,0.000381230531,0.000505377448,0.000602359043
2.85,5.99306861e-06,8.90779273e-05,0.000227671586,0.000383599577,0.000510567279,0.000609649496
2.9,5.99938829e-06,8.91808138e-05,0.000228099111,0.000385761769,0.000515634043,0.000616828396
2.95,6.00559932e-06,8.92809943e-05,0.000228507227,0.000387723239,0.000520578082,0.000623896209
3.0,6.01170561e-06,8.93786089e-05,0.000228897614,0.000389499983,0.000525399651,0.0006308534
3.05,6.01771089e-06,8.94737872e-05,0.000229271743,0.00039111287,0.000530098875,0.000637700427
3.1,6.0236187e-06,8.95666493e-05,0.00022963091,0.000392583302,0.000534675689,0.000644437743
3.15,6.02943241e-06,8.96573071e-05,0.000229976263,0.000393930846,0.000539129745,0.000651065794
3.2,6.03515523e-06,8.97458646e-05,0.000230308823,0.000395172423,0.000543460266,0.000657585018
3.25,6.04079023e-06,8.98324189e-05,0.000230629503,0.000396322286,0.000547665801,0.000663995847
3.3,6.04634032e-06,8.99170607e-05,0.00023093912,0.000397392332,0.000551743858,0.000670298701
3.35,6.05180828e-06,8.99998751e-05,0.000231238413,0.00039839247,0.000555690318,0.000676493988
3.4,6.05719678e-06,9.00809417e-05,0.000231528047,0.000399330985,0.000559498589,0.0006825821
3.45,6.06250836e-06,9.01603352e-05,0.000231808626,0.000400214841,0.000563158535,0.000688563414
3.5,6.06774545e-06,9.02381259e-05,0.0002320807,0.000401049923,0.000566655573,0.00069443828
3.55,6.07291037e-06,9.031438e-05,0.000232344771,0.000401841244,0.000569970937,0.000700207018
3.6,6.07800536e-06,9.03891599e-05,0.000232601297,0.0004025931,0.000573084519,0.000705869909
3.65,6.08303255e-06,9.04625245e-05,0.000232850699,0.000403309192,0.000575980456,0.000711427181
3.7,6.08799399e-06,9.05345295e-05,0.000233093364,0.000403992737,0.00057865273,0.000716878987
3.75,6.09289163e-06,9.06052275e-05,0.000233329649,0.000404646539,0.000581107017,0.00072222538
3.8,6.09772736e-06,9.06746682e-05,0.000233559884,0.00040527306,0.000583358144,0.000727466274
3.85,6.10250299e-06,9.07428991e-05,0.000233784374,0.000405874471,0.000585425707,0.000732601377
3.9,6.10722025e-06,9.08099648e-05,0.000234003402,0.000406452697,0.00058733037,0.00073763011
3.95,6.11188081e-06,9.0875908e-05,0.000234217231,0.00040700945,0.000589091684,0.000742551461
4.0,6.11648628e-06,9.09407692e-05,0.000234426108,0.000407546261,0.00059072713,0.000747363781
4.05,6.12103819e-06,9.10045867e-05,0.000234630261,0.000408064505,0.000592251896,0.000752064463
4.1,6.12553803e-06,9.10673974e-05,0.000234829905,0.00040856542,0.000593678997,0.000756649468
4.15,6.12998723e-06,9.1129236e-05,0.00023502524,0.000409050124,0.000595019535,0.000761112635
4.2,6.13438716e-06,9.1190136e-05,0.000235216453,0.000409519633,0.000596282973,0.000765444779
4.25,6.13873915e-06,9.1250129e-05,0.000235403722,0.00040997487,0.0005974774,0.000769632714
4.3,6.14304446e-06,9.13092454e-05,0.000235587212,0.000410416677,0.00059860976,0.000773658691
4.35,6.14730435e-06,9.13675143e-05,0.00023576708,0.000410845824,0.000599686038,0.000777501197
4.4,6.15151998e-06,9.14249632e-05,0.000235943473,0.000411263019,0.000600711422,0.000781138043
4.45,6.15569251e-06,9.14816187e-05,0.000236116531,0.000411668913,0.000601690433,0.000784551442
4.5,6.15982303e-06,9.15375062e-05,0.000236286384,0.000412064104,0.000602627024,0.000787732764
4.55,6.16391262e-06,9.15926499e-05,0.000236453158,0.000412449147,0.000603524677,0.000790684272
4.6,6.16796231e-06,9.16470732e-05,0.000236616971,0.000412824554,0.000604386467,0.000793417347
4.65,6.17197308e-06,9.17007984e-05,0.000236777933,0.000413190803,0.000605215124,0.00079594895
4.7,6.1759459e-06,9.17538468e-05,0.000236936152,0.000413548334,0.000606013081,0.000798298258
4.75,6.17988171e-06,9.1806239e-05,0.000237091727,0.000413897562,0.000606782518,0.000800484366
4.8,6.18378138e-06,9.18579948e-05,0.000237244756,0.00041423887,0.00060752539,0.000802525045
4.85,6.18764581e-06,9.1909133e-05,0.000237395328,0.000414572618,0.000608243462,0.000804436235
4.9,6.19147581e-06,9.19596718e-05,0.000237543531,0.000414899142,0.000608938328,0.000806231952
4.95,6.19527222e-06,9.20096289e-05,0.000237689448,0.00041521876,0.000609611438,0.0008079244
5.0,6.19903581e-06,9.20590209e-05,0.000237833156,0.000415531767,0.000610264108,0.000809524165
5.05,6.20276734e-06,9.21078641e-05,0.000237974733,0.000415838443,0.000610897543,0.000811040423
5.1,6.20646756e-06,9.2156174e-05,0.000238114248,0.00041613905,0.000611512843,0.000812481146
5.15,6.21013717e-06,9.22039656e-05,0.000238251772,0.000416433835,0.000612111018,0.000813853279
5.2,6.21377688e-06,9.22512534e-05,0.00023838737,0.000416723034,0.000612692999,0.00081516289
5.25,6.21738734e-06,9.22980513e-05,0.000238521104,0.000417006866,0.000613259643,0.000816415309
5.3,6.22096922e-06,9.23443728e-05,0.000238653036,0.000417285541,0.000613811743,0.000817615231
5.35,6.22452314e-06,9.23902306e-05,0.000238783221,0.000417559257,0.000614350032,0.000818766811
5.4,6.22804971e-06,9.24356373e-05,0.000238911717,0.000417828202,0.000614875191,0.000819873741
5.45,6.23154953e-06,9.2480605e-05,0.000239038574,0.000418092555,0.000615387856,0.000820939313
5.5,6.23502316e-06,9.25251452e-05,0.000239163845,0.000418352484,0.000615888614,0.000821966473
5.55,6.23847118e-06,9.25692691e-05,0.000239287579,0.000418608151,0.000616378019,0.000822957871
5.6,6.24189413e-06,9.26129876e-05,0.00023940982,0.000418859709,0.000616856585,0.000823915892
5.65,6.24529252e-06,9.26563111e-05,0.000239530616,0.000419107303,0.000617324794,0.000824842696
5.7,6.24866687e-06,9.26992496e-05,0.000239650008,0.000419351074,0.000617783099,0.000825740242
5.75,6.25201768e-06,9.27418131e-05,0.000239768039,0.000419591153,0.000618231925,0.000826610311
5.8,6.25534542e-06,9.27840108e-05,0.000239884748,0.000419827668,0.000618671672,0.000827454531
5.85,6.25865058e-06,9.28258519e-05,0.000240000174,0.000420060738,0.000619102716,0.000828274388
5.9,6.2619336e-06,9.28673452e-05,0.000240114353,0.00042029048,0.000619525414,0.000829071249
5.95,6.26519493e-06,9.29084992e-05,0.000240227322,0.000420517004,0.000619940099,0.000829846369
6.0,6.26843499e-06,9.29493223e-05,0.000240339113,0.000420740416,0.00062034709,0.000830600905
6.05,6.27165421e-06,9.29898223e-05,0.000240449762,0.000420960816,0.000620746686,0.000831335926
6.1,6.274853e-06,9.30300071e-05,0.000240559298,0.000421178302,0.000621139172,0.000832052423
6.15,6.27803175e-06,9.30698841e-05,0.000240667753,0.000421392967,0.000621524817,0.000832751313
6.2,6.28119084e-06,9.31094605e-05,0.000240775156,0.0004216049,0.000621903878,0.000833433452
6.25,6.28433065e-06,9.31487434e-05,0.000240881537,0.000421814185,0.000622276597,0.000834099633
6.3,6.28745156e-06,9.31877396e-05,0.000240986922,0.000422020906,0.000622643205,0.000834750599
6.35,6.2905539e-06,9.32264557e-05,0.000241091337,0.00042222514,0.000623003923,0.000835387044
6.4,6.29363803e-06,9.32648981e-05,0.000241194809,0.000422426963,0.00062335896,0.000836009617
6.45,6.2967043e-06,9.3303073e-05,0.000241297363,0.000422626448,0.000623708516,0.000836618927
6.5,6.29975301e-06,9.33409864e-05,0.000241399022,0.000422823664,0.000624052781,0.000837215546
6.55,6.30278451e-06,9.33786442e-05,0.000241499809,0.000423018679,0.000624391938,0.000837800011
6.6,6.30579909e-06,9.34160519e-05,0.000241599746,0.000423211558,0.00062472616,0.000838372828
