vds,vb1,vb2,vb3,vb4,vb5,vb6
0.0,-0.0,-0.0,-0.0,-0.0,-0.0,-0.0
0.05,4.57863417e-06,1.91904458e-05,2.9809684e-05,3.76863574e-05,4.35671018e-05,4.79605633e-05
0.1,8.41222541e-06,3.76496994e-05,5.89536783e-05,7.47727213e-05,8.6596655e-05,9.54412468e-05
0.15,1.15056106e-05,5.5382219e-05,8.74359907e-05,0.000111262466,0.000129091438,0.000142444318
0.2,1.38657064e-05,7.23924271e-05,0.000115260596,0.000147158942,0.000171054208,0.00018897203
0.25,1.55076545e-05,8.86847115e-05,0.000142431438,0.00018246547,0.000212487705,0.000235026621
0.3,1.6484281e-05,0.000104263426,0.000168952427,0.000217185351,0.000253394648,0.000280610316
0.35,1.69722842e-05,0.000119132892,0.000194827444,0.000251321858,0.00029377774,0.000325725324
0.4,1.72397814e-05,0.000133297399,0.000220060339,0.000284878241,0.000333639664,0.000370373843
0.45,1.74315179e-05,0.000146761203,0.000244654931,0.000317857726,0.000372983084,0.000414558055
0.5,1.75890226e-05,0.000159528536,0.000268615007,0.000350263514,0.000411810648,0.000458280129
0.55,1.77253785e-05,0.000171603597,0.000291944328,0.000382098783,0.000450124982,0.000501542222
0.6,1.78464561e-05,0.000182990565,0.000314646622,0.000413366688,0.0004879287,0.000544346476
0.65,1.79556486e-05,0.000193693597,0.000336725588,0.00044407036,0.000525224393,0.000586695019
0.7,1.80552122e-05,0.000203716835,0.000358184897,0.000474212906,0.000562014637,0.000628589968
0.75,1.81467696e-05,0.00021306442,0.000379028189,0.000503797412,0.000598301989,0.000670033426
0.8,1.82315447e-05,0.000221740502,0.000399259077,0.00053282694,0.000634088992,0.000711027481
0.85,1.83104911e-05,0.000229749275,0.000418881143,0.00056130453,0.000669378167,0.000751574211
0.9,1.83843696e-05,0.000237095026,0.000437897943,0.000589233198,0.000704172022,0.000791675679
0.95,1.84537987e-05,0.000243782242,0.000456313002,0.000616615941,0.000738473046,0.000831333938
1.0,1.85192885e-05,0.000249815827,0.000474129817,0.000643455731,0.000772283712,0.000870551025
1.05,1.85812654e-05,0.000255201611,0.000491351856,0.00066975552,0.000805606476,0.000909328966
1.1,1.86400896e-05,0.000259947578,0.000507982557,0.000695518235,0.000838443778,0.000947669776
1.15,1.8696068e-05,0.00026406699,0.000524025327,0.000720746786,0.00087079804,0.000985575454
1.2,1.87494649e-05,0.000267585647,0.000539483542,0.000745444057,0.00090267167,0.00102304799
1.25,1.8800509e-05,0.000270553763,0.000554360545,0.000769612914,0.000934067058,0.00106008936
1.3,1.88494e-05,0.000273051437,0.000568659637,0.000793256198,0.000964986579,0.00109670153
1.35,1.88963128e-05,0.000275172884,0.000582384082,0.000816376732,0.000995432592,0.00113288646
1.4,1.89414021e-05,0.000277002885,0.000595537091,0.000838977315,0.00102540744,0.00116864607
1.45,1.8984805e-05,0.000278606883,0.000608121809,0.000861060724,0.00105491345,0.00120398231
1.5,1.90266437e-05,0.00028003272,0.000620141302,0.000882629716,0.00108395293,0.00123889708
1.55,1.90670275e-05,0.00028131527,0.000631598514,0.000903687024,0.00111252818,0.0012733923
1.6,1.91060546e-05,0.000282480371,0.000642496212,0.000924235357,0.00114064148,0.00130746986
1.65,1.91438138e-05,0.000283547569,0.000652836889,0.000944277404,0.00116829509,0.00134113163
1.7,1.91803851e-05,0.000284531957,0.000662622583,0.000963815825,0.00119549127,0.0013743795
1.75,1.92158416e-05,0.000285445415,0.000671854554,0.000982853256,0.00122223224,0.00140721531
1.8,1.92502495e-05,0.000286297451,0.000680532708,0.0010013923,0.00124852023,0.00143964092
1.85,1.92836696e-05,0.000287095788,0.000688654544,0.00101943554,0.00127435743,0.00147165817
1.9,1.93161573e-05,0.000287846785,0.000696213469,0.00103698552,0.00129974604,0.00150326887
1.95,1.93477637e-05,0.000288555735,0.00070319674,0.00105404472,0.00132468822,0.00153447485
2.0,1.93785358e-05,0.000289227093,0.000709585363,0.0010706156,0.00134918614,0.0015652779
2.05,1.94085169e-05,0.000289864643,0.000715361594,0.00108670056,0.00137324193,0.00159567982
2.1,1.94377472e-05,0.000290471626,0.000720526653,0.00110230189,0.00139685771,0.00162568239
2.15,1.94662639e-05,0.000291050837,0.000725115474,0.0011174218,0.00142003559,0.00165528738
2.2,1.94941013e-05,0.000291604707,0.000729191797,0.00113206234,0.00144277766,0.00168449654
2.25,1.95212918e-05,0.00029213536,0.000732830025,0.00114622539,0.00146508599,0.00171331163
2.3,1.95478652e-05,0.000292644665,0.000736100463,0.00115991248,0.00148696263,0.00174173439
2.35,1.95738494e-05,0.000293134274,0.000739063119,0.00117312473,0.00150840961,0.00176976653
2.4,1.95992707e-05,0.000293605654,0.000741767,0.00118586253,0.00152942893,0.00179740977
2.45,1.96241535e-05,0.000294060114,0.000744251536,0.00119812519,0.00155002259,0.00182466582
2.5,1.96485208e-05,0.000294498828,0.000746548426,0.00120991018,0.00157019252,0.00185153637
2.55,1.96723942e-05,0.000294922852,0.000748683302,0.00122121203,0.00158994066,0.0018780231
2.6,1.9695794e-05,0.00029533314,0.000750677071,0.00123202038,0.00160926889,0.00190412768
2.65,1.97187394e-05,0.000295730555,0.000752546947,0.0012423171,0.00162817904,0.00192985177
2.7,1.97412483e-05,0.000296115882,0.000754307241,0.00125207267,0.00164667289,0.00195519701
2.75,1.97633378e-05,0.000296489838,0.000755969961,0.00126124407,0.00166475215,0.00198016503
2.8,1.97850241e-05,0.000296853077,0.00075754527,0.00126977937,0.00168241842,0.00200475746
2.85,1.98063223e-05,0.000297206199,0.000759041838,0.00127763395,0.00169967321,0.0020289759
2.9,1.9827247e-05,0.000297549756,0.000760467119,0.00128479267,0.00171651782,0.00205282195
2.95,1.98478117e-05,0.000297884257,0.000761827563,0.00129128059,0.00173295333,0.00207629717
3.0,1.98680295e-05,0.00029821017,0.000763128789,0.00129715466,0.00174898049,0.00209940314
3.05,1.98879127e-05,0.000298527931,0.000764375719,0.00130248628,0.00176459957,0.00212214138
3.1,1.99074731e-05,0.000298837943,0.000765572691,0.00130734734,0.0017798101,0.00214451343
3.15,1.99267218e-05,0.00029914058,0.000766723542,0.00131180293,0.00179461057,0.00216652078
3.2,1.99456695e-05,0.000299436191,0.000767831688,0.00131590902,0.0018089978,0.0021881649
3.25,1.99643263e-05,0.000299725102,0.000768900181,0.00131971267,0.00182296602,0.00220944724
3.3,1.99827019e-05,0.000300007617,0.000769931755,0.00132325305,0.0018365055,0.00223036919
3.35,2.00008054e-05,0.00030028402,0.000770928875,0.00132656281,0.00184960025,0.00225093212
3.4,2.00186458e-05,0.000300554578,0.000771893768,0.00132966923,0.00186222492,0.00227113732
3.45,2.00362314e-05,0.000300819542,0.000772828452,0.00133259524,0.00187434109,0.00229098603
3.5,2.00535703e-05,0.000301079147,0.000773734763,0.00133536021,0.0018858948,0.0023104794
3.55,2.00706702e-05,0.000301333615,0.000774614377,0.00133798067,0.0018968194,0.00232961845
3.6,2.00875385e-05,0.000301583154,0.000775468824,0.00134047075,0.00190704813,0.00234840405
3.65,2.01041822e-05,0.000301827963,0.000776299512,0.00134284268,0.00191653451,0.00236683686
3.7,2.01206081e-05,0.000302068226,0.000777107732,0.00134510705,0.00192526901,0.00238491727
3.75,2.01368228e-05,0.000302304121,0.000777894676,0.0013472731,0.00193328076,0.00240264525
3.8,2.01528324e-05,0.000302535814,0.000778661444,0.00134934896,0.001940626,0.00242002023
3.85,2.01686429e-05,0.000302763463,0.000779409057,0.0013513418,0.00194737319,0.00243704081
3.9,2.01842602e-05,0.000302987219,0.00078013846,0.00135325796,0.00195359175,0.00245370443
3.95,2.01996896e-05,0.000303207223,0.000780850533,0.00135510309,0.00195934602,0.00247000678
4.0,2.02149366e-05,0.000303423611,0.000781546094,0.00135688226,0.0019646929,0.00248594093
4.05,2.02300063e-05,0.000303636513,0.000782225908,0.0013586,0.0019696815,0.00250149605
4.1,2.02449034e-05,0.00030384605,0.00078289069,0.0013602604,0.0019743538,0.00251665545
4.15,2.02596329e-05,0.00030405234,0.000783541108,0.00136186715,0.00197874554,0.00253139388
4.2,2.02741992e-05,0.000304255493,0.00078417779,0.00136342361,0.00198288718,0.00254567426
4.25,2.02886067e-05,0.000304455616,0.000784801325,0.00136493284,0.00198680479,0.00255944464
4.3,2.03028596e-05,0.000304652811,0.000785412267,0.0013663976,0.00199052072,0.00257263799
4.35,2.03169621e-05,0.000304847175,0.000786011137,0.00136782046,0.00199405427,0.00258517835
4.4,2.0330918e-05,0.000305038799,0.000786598427,0.00136920375,0.00199742218,0.00259699504
4.45,2.03447312e-05,0.000305227774,0.000787174602,0.00137054962,0.00200063906,0.00260804084
4.5,2.03584053e-05,0.000305414183,0.000787740099,0.00137186005,0.00200371768,0.00261830411
4.55,2.03719438e-05,0.000305598108,0.000788295336,0.00137313688,0.00200666931,0.00262780866
4.6,2.03853501e-05,0.000305779626,0.000788840703,0.00137438179,0.00200950391,0.00263660378
4.65,2.03986276e-05,0.000305958813,0.000789376575,0.00137559638,0.00201223032,0.00264475184
4.7,2.04117794e-05,0.00030613574,0.000789903306,0.00137678209,0.00201485643,0.00265231842
4.75,2.04248085e-05,0.000306310475,0.00079042123,0.0013779403,0.00201738932,0.00265936635
4.8,2.04377181e-05,0.000306483085,0.000790930668,0.00137907228,0.00201983534,0.00266595282
4.85,2.04505109e-05,0.000306653632,0.000791431923,0.00138017922,0.00202220023,0.00267212852
4.9,2.04631897e-05,0.000306822179,0.000791925285,0.00138126223,0.00202448916,0.00267793771
4.95,2.04757572e-05,0.000306988782,0.000792411029,0.00138232235,0.00202670685,0.0026834188
5.0,2.0488216e-05,0.000307153499,0.000792889419,0.00138336058,0.00202885761,0.00268860506
5.05,2.05005687e-05,0.000307316383,0.000793360706,0.00138437784,0.00203094533,0.00269352531
5.1,2.05128177e-05,0.000307477486,0.000793825129,0.00138537499,0.00203297361,0.00269820462
5.15,2.05249653e-05,0.000307636859,0.000794282917,0.00138635285,0.00203494576,0.00270266484
5.2,2.05370138e-05,0.00030779455,0.00079473429,0.0013873122,0.00203686479,0.00270692509
5.25,2.05489655e-05,0.000307950605,0.000795179455,0.00138825377,0.00203873352,0.00271100218
5.3,2.05608226e-05,0.00030810507,0.000795618615,0.00138917825,0.00204055452,0.00271491094
5.35,2.0572587e-05,0.000308257987,0.000796051961,0.00139008631,0.0020423302,0.00271866452
5.4,2.05842609e-05,0.000308409398,0.000796479677,0.00139097855,0.00204406278,0.00272227461
5.45,2.05958462e-05,0.000308559343,0.00079690194,0.00139185558,0.00204575433,0.00272575165
5.5,2.06073447e-05,0.000308707861,0.000797318918,0.00139271795,0.00204740678,0.00272910502
5.55,2.06187585e-05,0.000308854989,0.000797730774,0.0013935662,0.00204902195,0.00273234312
5.6,2.06300891e-05,0.000309000765,0.000798137664,0.00139440083,0.0020506015,0.00273547357
5.65,2.06413385e-05,0.000309145221,0.000798539738,0.00139522233,0.00205214703,0.00273850324
5.7,2.06525082e-05,0.000309288393,0.000798937139,0.00139603116,0.00205366002,0.00274143839
5.75,2.06636e-05,0.000309430313,0.000799330005,0.00139682776,0.00205514185,0.00274428471
5.8,2.06746154e-05,0.000309571012,0.000799718471,0.00139761254,0.00205659383,0.00274704741
5.85,2.0685556e-05,0.000309710521,0.000800102662,0.00139838591,0.00205801721,0.00274973125
5.9,2.06964232e-05,0.000309848869,0.000800482704,0.00139914825,0.00205941314,0.0027523406
5.95,2.07072187e-05,0.000309986085,0.000800858713,0.00139989992,0.00206078273,0.0027548795
6.0,2.07179437e-05,0.000310122196,0.000801230805,0.00140064129,0.00206212701,0.00275735166
6.05,2.07285996e-05,0.000310257229,0.000801599089,0.00140137267,0.00206344698,0.00275976051
6.1,2.07391879e-05,0.00031039121,0.000801963671,0.0014020944,0.00206474355,0.00276210924
6.15,2.07497099e-05,0.000310524163,0.000802324653,0.00140280677,0.00206601762,0.0027644008
6.2,2.07601667e-05,0.000310656114,0.000802682133,0.00140351009,0.00206727003,0.00276663795
6.25,2.07705597e-05,0.000310787085,0.000803036208,0.00140420464,0.00206850158,0.00276882324
6.3,2.078089e-05,0.0003109171,0.000803386967,0.00140489069,0.00206971301,0.00277095908
6.35,2.07911589e-05,0.00031104618,0.000803734501,0.0014055685,0.00207090507,0.0027730477
6.4,2.08013675e-05,0.000311174346,0.000804078893,0.00140623832,0.00207207843,0.00277509119
6.45,2.08115168e-05,0.00031130162,0.000804420227,0.00140690038,0.00207323375,0.00277709153
6.5,2.08216081e-05,0.000311428022,0.000804758582,0.00140755494,0.00207437165,0.00277905056
6.55,2.08316423e-05,0.00031155357,0.000805094035,0.00140820219,0.00207549275,0.00278097002
6.6,2.08416206e-05,0.000311678284,0.000805426661,0.00140884237,0.00207659759,0.00278285155
