vds,vb1,vb2,vb3,vb4,vb5,vb6
0.0,-6.23473802e-38,-1.12533475e-35,5.2147789699999995e-36,-1.70743989e-36,4.79567702e-37,-4.2817599099999998e-19
-0.05,8.98948924e-07,1.87174622e-05,3.05032023e-05,3.87368683e-05,4.48144921e-05,4.94762796e-05
-0.1,1.17469828e-06,3.61500939e-05,5.98310388e-05,7.64102915e-05,8.86633244e-05,9.80702715e-05
-0.15,1.24566195e-06,5.2319217e-05,8.79983648e-05,0.000113031248,0.000131554966,0.00014578873
-0.2,1.28406666e-06,6.72459351e-05,0.0001150199,0.000148610644,0.000173497843,0.000192638379
-0.25,1.31527363e-06,8.09511666e-05,0.000140910219,0.000183159299,0.000214500329,0.00023862591
-0.3,1.3436708e-06,9.34557245e-05,0.000165683752,0.000216687956,0.000254570749,0.00028375798
-0.35,1.37051496e-06,0.000104780447,0.000189354786,0.00024920727,0.000293717375,0.000328041215
-0.4,1.39633061e-06,0.000114946435,0.000211937467,0.000280727817,0.000331948428,0.000371482203
-0.45,1.42139823e-06,0.000123975499,0.000233445799,0.000311260084,0.000369272077,0.000414087498
-0.5,1.44589321e-06,0.000131891043,0.00025389365,0.000340814474,0.000405696436,0.000455863619
-0.55,1.46993655e-06,0.000138719899,0.000273294752,0.000369401305,0.000441229567,0.000496817049
-0.6,1.49361723e-06,0.000144496231,0.000291662712,0.000397030805,0.000475879475,0.000536954234
-0.65,1.51700351e-06,0.000149269682,0.000309011016,0.000423713118,0.000509654109,0.000576281583
-0.7,1.54014938e-06,0.00015312012,0.000325353041,0.000449458298,0.000542561364,0.000614805465
-0.75,1.56309853e-06,0.000156174461,0.000340702073,0.000474276309,0.000574609077,0.000652532215
-0.8,1.58588694e-06,0.000158603269,0.000355071331,0.000498177031,0.000605805028,0.000689468125
-0.85,1.60854465e-06,0.000160581199,0.000368474001,0.00052117025,0.000636156939,0.00072561945
-0.9,1.63109706e-06,0.000162245698,0.000380923293,0.000543265665,0.000665672474,0.000760992408
-0.95,1.65356587e-06,0.000163688798,0.000392432536,0.00056447288,0.000694359239,0.000795593173
-1.0,1.67596976e-06,0.000164969277,0.000403015332,0.000584801408,0.000722224782,0.000829427882
-1.05,1.69832494e-06,0.000166125469,0.000412685851,0.00060426066,0.000749276589,0.000862502631
-1.1,1.72064557e-06,0.000167183465,0.00042145939,0.000622859944,0.000775522087,0.000894823476
-1.15,1.74294413e-06,0.000168161813,0.000429353509,0.000640608453,0.000800968641,0.000926396433
-1.2,1.76523162e-06,0.000169074189,0.000436390344,0.000657515248,0.000825623552,0.000957227474
-1.25,1.78751785e-06,0.000169930989,0.000442601002,0.000673589234,0.000849494057,0.000987322534
-1.3,1.80981154e-06,0.000170740313,0.000448032314,0.00068883912,0.000872587323,0.0010166875
-1.35,1.83212056e-06,0.000171508599,0.000452753102,0.000703273356,0.000894910443,0.00104532823
-1.4,1.85445195e-06,0.000172241058,0.000456853275,0.000716900033,0.000916470432,0.00107325052
-1.45,1.87681211e-06,0.000172941967,0.000460432711,0.000729726727,0.000937274214,0.00110046014
-1.5,1.89920683e-06,0.000173614879,0.000463586771,0.000741760264,0.000957328612,0.0011269628
-1.55,1.92164137e-06,0.000174262784,0.000466397072,0.000753006369,0.000976640329,0.00115276418
-1.6,1.94412055e-06,0.000174888217,0.00046892917,0.000763469234,0.000995215919,0.00117786988
-1.65,1.96664878e-06,0.000175493349,0.000471234229,0.000773151149,0.00101306175,0.00120228549
-1.7,1.9892301e-06,0.000176080053,0.000473351877,0.000782052731,0.00103018394,0.0012260165
-1.75,2.01186823e-06,0.000176649957,0.000475312932,0.000790174957,0.0010465883,0.00124906836
-1.8,2.03456662e-06,0.000177204484,0.000477141588,0.000797524555,0.00106228014,0.00127144646
-1.85,2.05732844e-06,0.000177744885,0.000478857063,0.000804122752,0.00107726416,0.00129315607
-1.9,2.08015664e-06,0.000178272266,0.000480474808,0.000810013065,0.00109154412,0.0013142024
-1.95,2.10305397e-06,0.000178787611,0.0004820074,0.000815261582,0.00110512242,0.00133459052
-2.0,2.12602298e-06,0.000179291796,0.000483465189,0.000819948357,0.00111799951,0.00135432535
-2.05,2.14906604e-06,0.000179785607,0.000484856781,0.000824155669,0.00113017308,0.00137341163
-2.1,2.17218539e-06,0.000180269753,0.000486189407,0.000827959264,0.00114163713,0.00139185386
-2.15,2.19538312e-06,0.00018074487,0.000487469189,0.000831424333,0.0011523812,0.0014096562
-2.2,2.21866118e-06,0.000181211539,0.00048870136,0.000834604947,0.00116239071,0.00142682236
-2.25,2.24202141e-06,0.000181670282,0.00048989042,0.000837545182,0.00117164979,0.00144335544
-2.3,2.26546554e-06,0.000182121581,0.00049104027,0.000840280772,0.00118014795,0.00145925767
-2.35,2.28899522e-06,0.000182565873,0.000492154309,0.000842840727,0.00118788971,0.00147453008
-2.4,2.31261199e-06,0.000183003558,0.000493235519,0.000845248722,0.00119490251,0.00148917196
-2.45,2.33631732e-06,0.000183435006,0.000494286528,0.000847524212,0.00120123764,0.00150318019
-2.5,2.3601126e-06,0.000183860555,0.000495309666,0.000849683316,0.00120696344,0.00151654834
-2.55,2.38399915e-06,0.000184280518,0.000496307003,0.000851739492,0.00121215499,0.00152926556
-2.6,2.40797824e-06,0.000184695185,0.000497280393,0.000853704072,0.00121688548,0.00154131568
-2.65,2.43205109e-06,0.000185104824,0.000498231497,0.000855586667,0.00122122107,0.00155267697
-2.7,2.45621885e-06,0.000185509684,0.000499161812,0.000857395491,0.00122521897,0.00156332393
-2.75,2.48048265e-06,0.000185909996,0.000500072691,0.000859137612,0.00122892744,0.0015732322
-2.8,2.50484358e-06,0.000186305975,0.00050096536,0.000860819147,0.00123238669,0.00158238676
-2.85,2.52930271e-06,0.000186697824,0.000501840936,0.000862445428,0.00123563011,0.00159079081
-2.9,2.55386109e-06,0.000187085729,0.000502700434,0.000864021123,0.00123868545,0.00159847097
-2.95,2.57851977e-06,0.000187469868,0.000503544787,0.000865550344,0.00124157582,0.00160547566
-3.0,2.60327978e-06,0.000187850404,0.000504374846,0.000867036728,0.00124432063,0.001611868
-3.05,2.62814219e-06,0.000188227493,0.000505191395,0.000868483509,0.0012469362,0.00161771703
-3.1,2.65310808e-06,0.00018860128,0.000505995158,0.000869893571,0.0012494364,0.0016230906
-3.15,2.67817856e-06,0.000188971903,0.000506786799,0.000871269502,0.00125183308,0.00162805105
-3.2,2.70335482e-06,0.000189339492,0.000507566937,0.000872613626,0.0012541364,0.00163265332
-3.25,2.72863809e-06,0.000189704168,0.000508336143,0.000873928042,0.00125635516,0.00163694473
-3.3,2.7540297e-06,0.000190066049,0.000509094946,0.000875214652,0.00125849698,0.00164096547
-3.35,2.7795311e-06,0.000190425245,0.000509843842,0.000876475181,0.00126056856,0.0016447495
-3.4,2.80514385e-06,0.000190781862,0.00051058329,0.000877711203,0.00126257574,0.00164832548
-3.45,2.83086966e-06,0.000191136,0.000511313719,0.000878924153,0.00126452372,0.00165171764
-3.5,2.85671043e-06,0.000191487758,0.000512035531,0.000880115347,0.00126641707,0.00165494653
-3.55,2.88266826e-06,0.000191837228,0.000512749103,0.000881285992,0.00126825989,0.00165802967
-3.6,2.9087455e-06,0.000192184504,0.000513454786,0.0008824372,0.00127005581,0.00166098205
-3.65,2.93494475e-06,0.000192529675,0.000514152912,0.000883569995,0.00127180813,0.00166381658
-3.7,2.96126893e-06,0.000192872829,0.000514843793,0.000884685323,0.00127351979,0.00166654444
-3.75,2.98772129e-06,0.000193214057,0.000515527724,0.000885784062,0.00127519345,0.00166917534
-3.8,3.01430548e-06,0.000193553446,0.000516204983,0.000886867024,0.00127683154,0.00167171776
-3.85,3.04102554e-06,0.000193891089,0.000516875834,0.000887934965,0.00127843624,0.00167417918
-3.9,3.06788603e-06,0.000194227078,0.000517540529,0.000888988589,0.00128000956,0.00167656616
-3.95,3.09489198e-06,0.000194561511,0.000518199305,0.000890028552,0.00128155334,0.00167888455
-4.0,3.12204902e-06,0.00019489449,0.000518852395,0.000891055468,0.00128306924,0.00168113953
-4.05,3.14936338e-06,0.000195226123,0.000519500018,0.000892069909,0.0012845588,0.00168333573
-4.1,3.17684198e-06,0.000195556525,0.000520142389,0.000893072413,0.00128602345,0.00168547731
-4.15,3.20449246e-06,0.000195885821,0.000520779717,0.000894063486,0.00128746449,0.00168756801
-4.2,3.23232326e-06,0.000196214143,0.00052141221,0.000895043602,0.00128888313,0.0016896112
-4.25,3.26034366e-06,0.000196541637,0.00052204007,0.000896013209,0.00129028049,0.00169160995
-4.3,3.28856388e-06,0.000196868464,0.000522663504,0.000896972732,0.00129165761,0.00169356702
-4.35,3.31699509e-06,0.000197194797,0.00052328272,0.000897922571,0.00129301546,0.00169548495
-4.4,3.34564954e-06,0.000197520828,0.000523897929,0.000898863107,0.00129435492,0.00169736604
-4.45,3.37454058e-06,0.000197846766,0.000524509352,0.000899794705,0.00129567685,0.00169921241
-4.5,3.40368276e-06,0.000198172842,0.00052511722,0.000900717715,0.00129698203,0.001701026
-4.55,3.43309188e-06,0.000198499309,0.000525721776,0.000901632472,0.00129827119,0.00170280859
-4.6,3.4627851e-06,0.000198826447,0.00052632328,0.000902539304,0.00129954502,0.00170456182
-4.65,3.49278098e-06,0.000199154561,0.000526922011,0.000903438531,0.00130080416,0.00170628722
-4.7,3.52309956e-06,0.000199483986,0.000527518272,0.000904330467,0.00130204923,0.00170798619
-4.75,3.55376246e-06,0.000199815088,0.000528112392,0.000905215426,0.0013032808,0.00170966004
-4.8,3.58479295e-06,0.000200148269,0.000528704732,0.000906093723,0.00130449941,0.00171130997
-4.85,3.61621602e-06,0.000200483964,0.000529295685,0.00090696568,0.00130570557,0.00171293711
-4.9,3.64805846e-06,0.00020082265,0.000529885688,0.000907831626,0.00130689979,0.00171454252
-4.95,3.68034896e-06,0.000201164844,0.00053047522,0.000908691906,0.00130808253,0.00171612717
-5.0,3.71311818e-06,0.000201511105,0.000531064808,0.000909546879,0.00130925424,0.00171769199
-5.05,3.74639882e-06,0.00020186204,0.000531655036,0.00091039693,0.00131041536,0.00171923782
-5.1,3.78022571e-06,0.000202218303,0.000532246544,0.000911242471,0.00131156631,0.00172076549
-5.15,3.81463591e-06,0.000202580601,0.000532840041,0.000912083946,0.00131270751,0.00172227574
-5.2,3.84966877e-06,0.000202949691,0.000533436302,0.000912921839,0.00131383938,0.0017237693
-5.25,3.88536603e-06,0.000203326388,0.000534036181,0.00091375668,0.00131496234,0.00172524684
-5.3,3.92177187e-06,0.000203711565,0.000534640614,0.000914589051,0.00131607681,0.001726709
-5.35,3.95893303e-06,0.000204106154,0.000535250623,0.000915419593,0.00131718321,0.00172815639
-5.4,3.99689886e-06,0.00020451115,0.000535867326,0.000916249014,0.001318282,0.0017295896
-5.45,4.03572143e-06,0.000204927613,0.00053649194,0.000917078097,0.00131937366,0.00173100919
-5.5,4.07545557e-06,0.00020535667,0.000537125788,0.000917907707,0.00132045867,0.00173241569
-5.55,4.116159e-06,0.000205799517,0.000537770305,0.000918738802,0.00132153757,0.00173380963
-5.6,4.15789236e-06,0.000206257421,0.000538427045,0.000919572439,0.00132261095,0.00173519154
-5.65,4.20071931e-06,0.000206731722,0.000539097687,0.000920409784,0.00132367944,0.00173656191
-5.7,4.24470661e-06,0.000207223834,0.000539784039,0.000921252122,0.00132474372,0.00173792127
-5.75,4.28992419e-06,0.000207735249,0.000540488048,0.000922100866,0.00132580455,0.00173927012
-5.8,4.33644521e-06,0.000208267538,0.000541211801,0.00092295757,0.00132686277,0.001740609
-5.85,4.38434614e-06,0.000208822348,0.000541957535,0.000923823932,0.00132791931,0.00174193847
-5.9,4.43370687e-06,0.000209401413,0.00054272764,0.00092470181,0.00132897519,0.00174325908
-5.95,4.48461071e-06,0.000210006545,0.000543524666,0.000925593232,0.00133003155,0.00174457147
-6.0,4.53714451e-06,0.000210639643,0.00054435133,0.000926500402,0.00133108966,0.00174587628
-6.05,4.59139871e-06,0.00021130269,0.000545210515,0.000927425716,0.0013321509,0.00174717421
-6.1,4.64746741e-06,0.000211997756,0.000546105282,0.000928371766,0.00133321683,0.00174846605
-6.15,4.70544843e-06,0.000212726998,0.000547038871,0.000929341356,0.00133428914,0.00174975264
-6.2,4.76544336e-06,0.000213492661,0.000548014707,0.000930337511,0.00133536973,0.0017510349
-6.25,4.82755765e-06,0.000214297081,0.000549036404,0.000931363482,0.00133646066,0.00175231388
-6.3,4.89190066e-06,0.000215142681,0.000550107767,0.000932422763,0.00133756419,0.0017535907
-6.35,4.9585857e-06,0.000216031974,0.0005512328,0.000933519095,0.00133868283,0.00175486664
-6.4,5.0277301e-06,0.000216967566,0.000552415703,0.000934656479,0.00133981929,0.00175614309
-6.45,5.09945526e-06,0.000217952152,0.000553660884,0.000935839184,0.00134097653,0.00175742164
-6.5,5.17388671e-06,0.000218988518,0.000554972954,0.000937071754,0.00134215779,0.00175870399
-6.55,5.25115415e-06,0.000220079542,0.000556356732,0.000938359019,0.00134336657,0.00175999208
-6.6,5.3313915e-06,0.000221228192,0.000557817248,0.000939706102,0.00134460666,0.00176128802
