vds,vb1,vb2,vb3,vb4,vb5,vb6
0.0,1.04737786e-25,-2.0623195500000003e-21,-7.83793812e-21,-2.40657953e-20,2.0731430699999998e-24,-2.0063607800000002e-20
-0.05,5.88284302e-06,2.34176018e-05,3.64246535e-05,4.68123633e-05,5.54884748e-05,6.29913854e-05
-0.1,1.06030389e-05,4.56384406e-05,7.17448429e-05,9.26010792e-05,0.000110019341,0.000125079018
-0.15,1.42441679e-05,6.67318924e-05,0.000106026372,0.000137429397,0.000163653852,0.000186322511
-0.2,1.68531714e-05,8.6718343e-05,0.000139288198,0.000181315409,0.000216409497,0.000246738898
-0.25,1.85128362e-05,0.000105606274,0.000171537613,0.000224265765,0.000268292507,0.00030633412
-0.3,1.94217677e-05,0.000123401312,0.000202779018,0.000266284218,0.000319306223,0.000365111232
-0.35,1.98983876e-05,0.000140108443,0.000233016096,0.000307373795,0.000369453247,0.000423072541
-0.4,2.01978534e-05,0.000155732574,0.000262252361,0.000347537337,0.000418735989,0.000480220158
-0.45,2.04315018e-05,0.000170278705,0.000290491287,0.000386777639,0.000467156812,0.000536556143
-0.5,2.06367403e-05,0.000183752026,0.000317736344,0.000425097489,0.000514718066,0.000592082546
-0.55,2.08266924e-05,0.000196158039,0.00034399101,0.00046249967,0.0005614221,0.000646801408
-0.6,2.10067586e-05,0.000207502733,0.000369258775,0.000498986968,0.000607271259,0.000700714773
-0.65,2.11795805e-05,0.000217792899,0.000393543143,0.000534562168,0.00065226789,0.000753824682
-0.7,2.13466631e-05,0.000227036673,0.000416847638,0.000569228059,0.00069641434,0.000806133176
-0.75,2.15089752e-05,0.000235244528,0.00043917581,0.000602987433,0.000739712954,0.000857642297
-0.8,2.16672009e-05,0.000242431142,0.000460531241,0.000635843083,0.00078216608,0.000908354084
-0.85,2.18218558e-05,0.000248618922,0.000480917557,0.000667797808,0.000823776065,0.000958270577
-0.9,2.19733476e-05,0.000253844518,0.000500338442,0.000698854409,0.000864545256,0.00100739381
-0.95,2.21220096e-05,0.00025816965,0.000518797659,0.000729015693,0.000904476001,0.00105572584
-1.0,2.22681209e-05,0.00026169443,0.000536299076,0.000758284476,0.000943570648,0.00110326868
-1.05,2.24119194e-05,0.000264562117,0.000552846707,0.00078666358,0.000981831546,0.00115002438
-1.1,2.25536106e-05,0.000266939043,0.000568444773,0.000814155836,0.00101926105,0.00119599498
-1.15,2.26933742e-05,0.000268975833,0.000583097789,0.000840764091,0.0010558615,0.00124118251
-1.2,2.28313683e-05,0.000270781971,0.000596810697,0.000866491204,0.00109163526,0.00128558901
-1.25,2.29677335e-05,0.000272426774,0.000609589076,0.000891340055,0.00112658468,0.00132921652
-1.3,2.3102595e-05,0.000273952169,0.000621439464,0.000915313547,0.00116071213,0.00137206707
-1.35,2.32360653e-05,0.000275384095,0.00063236989,0.000938414616,0.00119401995,0.00141414269
-1.4,2.33682459e-05,0.000276739533,0.000642390727,0.000960646233,0.00122651053,0.00145544544
-1.45,2.34992286e-05,0.000278030326,0.000651516091,0.000982011422,0.00125818621,0.00149597733
-1.5,2.36290966e-05,0.000279265224,0.000659766096,0.00100251327,0.0012890494,0.00153574041
-1.55,2.37579261e-05,0.000280450995,0.000667170297,0.00102215494,0.00131910245,0.00157473671
-1.6,2.38857864e-05,0.000281593061,0.000673772357,0.00104093972,0.00134834777,0.00161296828
-1.65,2.40127414e-05,0.000282695885,0.00067963483,0.00105887104,0.00137678776,0.00165043716
-1.7,2.41388495e-05,0.000283763213,0.000684840865,0.00107595251,0.00140442483,0.00168714538
-1.75,2.42641646e-05,0.000284798241,0.00068948877,0.00109218803,0.0014312614,0.00172309499
-1.8,2.43887367e-05,0.000285803726,0.000693679323,0.00110758189,0.00145729993,0.00175828803
-1.85,2.45126117e-05,0.000286782073,0.000697502413,0.00112213887,0.00148254288,0.00179272655
-1.9,2.46358323e-05,0.000287735396,0.000701030072,0.00113586455,0.00150699274,0.00182641261
-1.95,2.47584384e-05,0.000288665565,0.000704316638,0.0011487656,0.00153065205,0.00185934826
-2.0,2.48804668e-05,0.000289574247,0.000707402392,0.0011608503,0.00155352337,0.00189153556
-2.05,2.50019519e-05,0.00029046293,0.000710317522,0.00117212933,0.00157560934,0.00192297658
-2.1,2.51229259e-05,0.000291332956,0.000713085206,0.00118261694,0.00159691264,0.0019536734
-2.15,2.52434188e-05,0.000292185534,0.000715723723,0.0011923325,0.00161743604,0.00198362808
-2.2,2.53634589e-05,0.00029302176,0.000718247843,0.00120130264,0.00163718243,0.00201284273
-2.25,2.54830724e-05,0.000293842632,0.000720669749,0.00120956344,0.00165615483,0.00204131946
-2.3,2.56022841e-05,0.000294649057,0.000722999657,0.00121716198,0.00167435646,0.00206906036
-2.35,2.57211174e-05,0.000295441868,0.000725246258,0.00122415576,0.00169179075,0.00209606759
-2.4,2.58395942e-05,0.000296221828,0.00072741702,0.00123060927,0.00170846151,0.0021223433
-2.45,2.59577351e-05,0.000296989638,0.000729518425,0.00123658851,0.00172437293,0.00214788965
-2.5,2.60755597e-05,0.000297745944,0.000731556145,0.00124215553,0.00173952986,0.00217270886
-2.55,2.61930864e-05,0.000298491345,0.00073353517,0.00124736521,0.00175393795,0.00219680318
-2.6,2.63103327e-05,0.000299226392,0.000735459924,0.00125226422,0.00176760402,0.00222017487
-2.65,2.6427315e-05,0.000299951599,0.000737334345,0.0012568916,0.00178053651,0.00224282629
-2.7,2.65440491e-05,0.000300667442,0.000739161958,0.00126127985,0.0017927461,0.00226475982
-2.75,2.66605499e-05,0.000301374364,0.00074094593,0.00126545615,0.00180424656,0.00228597794
-2.8,2.67768316e-05,0.00030207278,0.000742689116,0.00126944339,0.00181505577,0.00230648324
-2.85,2.68929078e-05,0.000302763076,0.000744394103,0.00127326098,0.00182519678,0.00232627839
-2.9,2.70087915e-05,0.000303445613,0.00074606324,0.00127692552,0.00183469875,0.00234536626
-2.95,2.71244953e-05,0.00030412073,0.000747698668,0.00128045132,0.00184359716,0.00236374989
-3.0,2.72400312e-05,0.000304788744,0.000749302342,0.00128385079,0.00185193312,0.00238143256
-3.05,2.73554111e-05,0.000305449954,0.000750876055,0.00128713476,0.00185975151,0.00239841788
-3.1,2.74706464e-05,0.00030610464,0.000752421451,0.00129031275,0.00186709867,0.00241470985
-3.15,2.75857483e-05,0.000306753067,0.000753940048,0.00129339314,0.00187402004,0.00243031301
-3.2,2.77007282e-05,0.000307395484,0.000755433242,0.00129638338,0.0018805584,0.00244523259
-3.25,2.78155973e-05,0.000308032125,0.000756902328,0.00129929012,0.00188675288,0.00245947468
-3.3,2.79303668e-05,0.000308663215,0.000758348503,0.00130211928,0.00189263854,0.00247304661
-3.35,2.80450485e-05,0.000309288962,0.00075977288,0.0013048762,0.00189824641,0.00248595724
-3.4,2.81596544e-05,0.000309909568,0.000761176493,0.00130756567,0.00190360378,0.00249821762
-3.45,2.82741968e-05,0.000310525221,0.000762560305,0.00131019206,0.00190873458,0.00250984162
-3.5,2.83886892e-05,0.000311136102,0.000763925216,0.0013127593,0.0019136598,0.00252084686
-3.55,2.85031454e-05,0.000311742384,0.000765272066,0.00131527098,0.00191839784,0.00253125553
-3.6,2.86175807e-05,0.00031234423,0.000766601641,0.00131773039,0.00192296488,0.00254109486
-3.65,2.87320114e-05,0.000312941798,0.000767914679,0.00132014051,0.00192737523,0.00255039684
-3.7,2.88464554e-05,0.00031353524,0.000769211872,0.0013225041,0.00193164152,0.00255919721
-3.75,2.89609321e-05,0.000314124702,0.00077049387,0.00132482368,0.00193577498,0.00256753373
-3.8,2.90754631e-05,0.000314710327,0.000771761285,0.0013271016,0.00193978562,0.00257544446
-3.85,2.91900721e-05,0.000315292253,0.000773014693,0.00132933999,0.0019436824,0.00258296629
-3.9,2.93047852e-05,0.000315870617,0.000774254639,0.00133154086,0.00194747335,0.00259013385
-3.95,2.94196315e-05,0.000316445555,0.000775481637,0.00133370605,0.00195116569,0.00259697905
-4.0,2.9534643e-05,0.000317017201,0.000776696173,0.00133583728,0.00195476597,0.00260353081
-4.05,2.96498553e-05,0.000317585692,0.000777898708,0.00133793613,0.00195828009,0.00260981512
-4.1,2.97653076e-05,0.000318151166,0.000779089679,0.00134000411,0.00196171343,0.00261585521
-4.15,2.98810435e-05,0.000318713766,0.000780269502,0.0013420426,0.00196507089,0.00262167181
-4.2,2.99971109e-05,0.000319273641,0.000781438573,0.0013440529,0.00196835693,0.00262728336
-4.25,3.01135626e-05,0.000319830945,0.00078259727,0.00134603623,0.00197157565,0.00263270633
-4.3,3.02304566e-05,0.000320385844,0.000783745956,0.00134799372,0.00197473081,0.0026379554
-4.35,3.03478569e-05,0.000320938513,0.000784884978,0.00134992645,0.00197782586,0.00264304371
-4.4,3.04658334e-05,0.000321489141,0.000786014674,0.00135183543,0.00198086398,0.00264798306
-4.45,3.05844624e-05,0.000322037932,0.000787135368,0.0013537216,0.00198384813,0.00265278403
-4.5,3.07038273e-05,0.00032258511,0.00078824738,0.00135558585,0.00198678101,0.00265745616
-4.55,3.0824019e-05,0.000323130916,0.000789351022,0.00135742904,0.00198966517,0.00266200807
-4.6,3.0945136e-05,0.000323675617,0.000790446604,0.00135925195,0.00199250294,0.0026664476
-4.65,3.10672855e-05,0.000324219506,0.000791534434,0.00136105534,0.00199529651,0.00267078182
-4.7,3.11905829e-05,0.000324762903,0.000792614825,0.00136283993,0.00199804791,0.0026750172
-4.75,3.13151533e-05,0.000325306163,0.000793688093,0.00136460639,0.00200075904,0.00267915965
-4.8,3.14411312e-05,0.000325849675,0.000794754564,0.00136635538,0.00200343167,0.00268321457
-4.85,3.15686614e-05,0.000326393868,0.000795814578,0.0013680875,0.00200606747,0.0026871869
-4.9,3.1697899e-05,0.000326939211,0.000796868491,0.00136980336,0.00200866801,0.0026910812
-4.95,3.18290104e-05,0.000327486222,0.000797916679,0.00137150351,0.00201123473,0.00269490165
-5.0,3.19621735e-05,0.000328035467,0.000798959546,0.0013731885,0.00201376902,0.00269865214
-5.05,3.20975779e-05,0.000328587566,0.000799997524,0.00137485885,0.00201627217,0.00270233623
-5.1,3.22354258e-05,0.000329143195,0.000801031085,0.00137651509,0.0020187454,0.00270595725
-5.15,3.23759321e-05,0.000329703094,0.00080206074,0.00137815772,0.00202118987,0.00270951827
-5.2,3.25193251e-05,0.000330268065,0.00080308705,0.00137978723,0.00202360665,0.00271302215
-5.25,3.26658464e-05,0.000330838981,0.00080411063,0.00138140411,0.0020259968,0.00271647156
-5.3,3.28157522e-05,0.000331416787,0.000805132156,0.00138300888,0.00202836127,0.00271986897
-5.35,3.29693127e-05,0.000332002506,0.000806152373,0.00138460203,0.002030701,0.00272321673
-5.4,3.31268133e-05,0.000332597243,0.000807172103,0.00138618409,0.00203301687,0.00272651698
-5.45,3.32885545e-05,0.000333202184,0.00080819225,0.00138775558,0.00203530972,0.00272977178
-5.5,3.34548525e-05,0.000333818609,0.00080921381,0.00138931709,0.00203758036,0.00273298303
-5.55,3.36260393e-05,0.000334447888,0.000810237881,0.0013908692,0.00203982957,0.00273615252
-5.6,3.38024635e-05,0.000335091487,0.000811265667,0.00139241255,0.00204205808,0.00273928194
-5.65,3.39844902e-05,0.000335750975,0.000812298492,0.00139394784,0.00204426663,0.00274237287
-5.7,3.41725015e-05,0.000336428024,0.000813337805,0.0013954758,0.00204645591,0.00274542682
-5.75,3.43668968e-05,0.000337124414,0.000814385189,0.00139699726,0.00204862662,0.0027484452
-5.8,3.4568093e-05,0.000337842035,0.000815442375,0.00139851309,0.00205077944,0.00275142935
-5.85,3.4776525e-05,0.000338582894,0.000816511246,0.00140002428,0.00205291505,0.00275438053
-5.9,3.49926456e-05,0.000339349114,0.000817593849,0.0014015319,0.00205503416,0.00275729995
-5.95,3.5216926e-05,0.000340142941,0.000818692402,0.00140303715,0.00205713745,0.00276018874
-6.0,3.54498562e-05,0.000340966744,0.000819809309,0.00140454133,0.00205922565,0.00276304801
-6.05,3.56919446e-05,0.000341823018,0.000820947164,0.00140604589,0.00206129952,0.00276587878
-6.1,3.5943719e-05,0.00034271439,0.00082210876,0.00140755244,0.00206335984,0.00276868205
-6.15,3.6205726e-05,0.00034364362,0.000823297103,0.00140906273,0.00206540746,0.00277145879
-6.2,3.64785318e-05,0.000344613598,0.000824515419,0.0014105787,0.00206744328,0.00277420992
-6.25,3.6762722e-05,0.000345627357,0.00082576716,0.00141210248,0.00206946827,0.00277693635
-6.3,3.70589018e-05,0.000346688066,0.000827056016,0.00141363643,0.0020714835,0.00277963895
-6.35,3.73676962e-05,0.000347799034,0.000828385925,0.0014151831,0.00207349012,0.0027823186
-6.4,3.76897499e-05,0.000348963714,0.000829761075,0.00141674529,0.00207548941,0.00278497617
-6.45,3.80257277e-05,0.000350185705,0.00083118592,0.00141832607,0.00207748277,0.00278761252
-6.5,3.83763143e-05,0.000351468748,0.000832665183,0.00141992876,0.00207947175,0.00279022855
-6.55,3.87422146e-05,0.000352816733,0.000834203861,0.00142155697,0.00208145805,0.00279282516
-6.6,3.91241536e-05,0.000354233696,0.00083580724,0.00142321463,0.00208344359,0.00279540329
