vds,vb1,vb2,vb3,vb4,vb5,vb6
0.0,-4.11824292e-27,-5.40208802e-23,-5.8212149199999995e-22,-1.72532241e-21,1.6736674700000002e-25,1.4108716300000002e-20
-0.05,1.82195699e-07,6.3916984e-07,1.01650557e-06,1.33386598e-06,1.60387522e-06,1.83602367e-06
-0.1,3.33774095e-07,1.24703499e-06,2.00380473e-06,2.64068159e-06,3.18268031e-06,3.64874977e-06
-0.15,4.56953913e-07,1.82555079e-06,2.96375065e-06,3.9222216e-06,4.73812679e-06,5.43983753e-06
-0.2,5.52559423e-07,2.37521605e-06,3.89681545e-06,5.17894203e-06,6.27065943e-06,7.20972333e-06
-0.25,6.21495886e-07,2.89617399e-06,4.80312458e-06,6.41096042e-06,7.78039164e-06,8.95851843e-06
-0.3,6.65873733e-07,3.3884821e-06,5.68271683e-06,7.6183077e-06,9.2673504e-06,1.06862479e-05
-0.35,6.90692784e-07,3.85217836e-06,6.53560954e-06,8.80099277e-06,1.07315402e-05,1.23929141e-05
-0.4,7.03802806e-07,4.28729781e-06,7.36181494e-06,9.95901902e-06,1.21729599e-05,1.40785132e-05
-0.45,7.11775544e-07,4.6938774e-06,8.16134424e-06,1.10923885e-05,1.35916068e-05,1.57430401e-05
-0.5,7.17758918e-07,5.07195829e-06,8.93420869e-06,1.22011033e-05,1.49874779e-05,1.73864891e-05
-0.55,7.22902487e-07,5.42158823e-06,9.68041989e-06,1.32851651e-05,1.63605701e-05,1.90088546e-05
-0.6,7.27623202e-07,5.74282519e-06,1.03999899e-05,1.43445762e-05,1.77108807e-05,2.0610131e-05
-0.65,7.32089348e-07,6.03574321e-06,1.10929313e-05,1.53793388e-05,1.90384068e-05,2.21903126e-05
-0.7,7.36378282e-07,6.30044259e-06,1.17592574e-05,1.63894555e-05,2.03431457e-05,2.3749394e-05
-0.75,7.40530302e-07,6.53706794e-06,1.23989823e-05,1.73749289e-05,2.16250948e-05,2.52873698e-05
-0.8,7.44568923e-07,6.74584136e-06,1.3012121e-05,1.83357619e-05,2.28842515e-05,2.68042345e-05
-0.85,7.48509308e-07,6.92712464e-06,1.35986899e-05,1.92719577e-05,2.41206135e-05,2.82999829e-05
-0.9,7.52362093e-07,7.08153654e-06,1.41587067e-05,2.01835196e-05,2.53341785e-05,2.97746096e-05
-0.95,7.56135269e-07,7.2101652e-06,1.46921914e-05,2.10704513e-05,2.65249444e-05,3.12281096e-05
-1.0,7.5983517e-07,7.31490499e-06,1.51991665e-05,2.19327568e-05,2.7692909e-05,3.26604776e-05
-1.05,7.63467027e-07,7.39882464e-06,1.56796579e-05,2.27704405e-05,2.88380706e-05,3.40717086e-05
-1.1,7.67035293e-07,7.46619108e-06,1.61336965e-05,2.35835071e-05,2.99604273e-05,3.54617977e-05
-1.15,7.70543845e-07,7.52173978e-06,1.65613198e-05,2.43719617e-05,3.10599775e-05,3.683074e-05
-1.2,7.73996119e-07,7.56955157e-06,1.69625749e-05,2.51358102e-05,3.21367197e-05,3.81785305e-05
-1.25,7.773952e-07,7.61245308e-06,1.73375225e-05,2.58750588e-05,3.31906527e-05,3.95051646e-05
-1.3,7.8074388e-07,7.65214523e-06,1.76862439e-05,2.65897147e-05,3.42217752e-05,4.08106376e-05
-1.35,7.8404471e-07,7.68959454e-06,1.8008851e-05,2.72797859e-05,3.52300864e-05,4.20949449e-05
-1.4,7.87300034e-07,7.72535365e-06,1.83055036e-05,2.79452815e-05,3.62155856e-05,4.33580819e-05
-1.45,7.90512015e-07,7.75975281e-06,1.85764362e-05,2.85862119e-05,3.71782721e-05,4.46000444e-05
-1.5,7.93682657e-07,7.79300223e-06,1.88220032e-05,2.92025892e-05,3.81181459e-05,4.58208279e-05
-1.55,7.96813823e-07,7.82524507e-06,1.9042751e-05,2.97944278e-05,3.90352069e-05,4.70204283e-05
-1.6,7.99907251e-07,7.85658535e-06,1.92395287e-05,3.03617446e-05,3.99294556e-05,4.81988415e-05
-1.65,8.02964567e-07,7.88710297e-06,1.94136419e-05,3.09045601e-05,4.08008927e-05,4.93560634e-05
-1.7,8.0598729e-07,7.91686214e-06,1.95670162e-05,3.14228998e-05,4.16495193e-05,5.04920902e-05
-1.75,8.08976851e-07,7.94591637e-06,1.97022727e-05,3.1916795e-05,4.24753372e-05,5.16069183e-05
-1.8,8.11934592e-07,7.97431147e-06,1.98225683e-05,3.23862858e-05,4.32783486e-05,5.2700544e-05
-1.85,8.14861777e-07,8.00208746e-06,1.99311685e-05,3.28314241e-05,4.40585563e-05,5.37729639e-05
-1.9,8.177596e-07,8.02927989e-06,2.00309545e-05,3.32522782e-05,4.48159642e-05,5.48241748e-05
-1.95,8.20629187e-07,8.05592066e-06,2.01241455e-05,3.36489396e-05,4.55505768e-05,5.58541736e-05
-2.0,8.23471604e-07,8.08203871e-06,2.02122974e-05,3.4021534e-05,4.62624001e-05,5.68629576e-05
-2.05,8.26287857e-07,8.10766044e-06,2.02964525e-05,3.43702361e-05,4.69514412e-05,5.7850524e-05
-2.1,8.29078904e-07,8.1328101e-06,2.03773058e-05,3.46952939e-05,4.76177091e-05,5.88168707e-05
-2.15,8.31845651e-07,8.15751005e-06,2.04553324e-05,3.49970637e-05,4.82612151e-05,5.97619955e-05
-2.2,8.34588959e-07,8.181781e-06,2.05308705e-05,3.52760618e-05,4.88819729e-05,6.06858968e-05
-2.25,8.37309645e-07,8.20564217e-06,2.06041725e-05,3.55330357e-05,4.948e-05,6.15885733e-05
-2.3,8.40008489e-07,8.2291115e-06,2.06754351e-05,3.57690508e-05,5.00553182e-05,6.24700241e-05
-2.35,8.42686232e-07,8.2522057e-06,2.0744818e-05,3.59855739e-05,5.0607955e-05,6.3330249e-05
-2.4,8.45343581e-07,8.27494044e-06,2.08124546e-05,3.6184506e-05,5.11379458e-05,6.41692482e-05
-2.45,8.47981209e-07,8.29733038e-06,2.08784596e-05,3.63681067e-05,5.16453359e-05,6.49870227e-05
-2.5,8.5059976e-07,8.31938931e-06,2.09429334e-05,3.65387888e-05,5.21301844e-05,6.57835743e-05
-2.55,8.53199849e-07,8.3411302e-06,2.10059651e-05,3.66988469e-05,5.2592569e-05,6.65589058e-05
-2.6,8.55782062e-07,8.36256526e-06,2.10676346e-05,3.68502425e-05,5.30325933e-05,6.73130213e-05
-2.65,8.58346963e-07,8.38370602e-06,2.11280147e-05,3.69945185e-05,5.34503964e-05,6.80459261e-05
-2.7,8.60895091e-07,8.40456336e-06,2.11871714e-05,3.71328283e-05,5.38461676e-05,6.87576276e-05
-2.75,8.6342696e-07,8.42514756e-06,2.12451654e-05,3.72660177e-05,5.42201672e-05,6.9448135e-05
-2.8,8.65943068e-07,8.44546839e-06,2.13020529e-05,3.73947115e-05,5.45727544e-05,7.01174604e-05
-2.85,8.68443891e-07,8.46553506e-06,2.13578855e-05,3.75193822e-05,5.49044259e-05,7.07656191e-05
-2.9,8.70929887e-07,8.48535635e-06,2.14127113e-05,3.76403989e-05,5.52158641e-05,7.13926305e-05
-2.95,8.734015e-07,8.50494057e-06,2.14665751e-05,3.77580594e-05,5.55079885e-05,7.19985196e-05
-3.0,8.75859155e-07,8.52429563e-06,2.15195186e-05,3.78726113e-05,5.57819977e-05,7.25833179e-05
-3.05,8.78303268e-07,8.54342905e-06,2.15715809e-05,3.7984266e-05,5.60393753e-05,7.3147066e-05
-3.1,8.80734241e-07,8.56234801e-06,2.16227984e-05,3.80932071e-05,5.62818345e-05,7.36898157e-05
-3.15,8.83152467e-07,8.58105932e-06,2.16732055e-05,3.81995971e-05,5.65111951e-05,7.42116343e-05
-3.2,8.8555833e-07,8.5995695e-06,2.17228344e-05,3.83035817e-05,5.67292254e-05,7.47126091e-05
-3.25,8.87952211e-07,8.61788477e-06,2.17717154e-05,3.8405292e-05,5.69375074e-05,7.51928548e-05
-3.3,8.90334483e-07,8.63601106e-06,2.18198772e-05,3.85048479e-05,5.71373647e-05,7.56525225e-05
-3.35,8.92705521e-07,8.65395406e-06,2.18673466e-05,3.86023587e-05,5.73298581e-05,7.60918128e-05
-3.4,8.95065702e-07,8.67171919e-06,2.19141493e-05,3.86979253e-05,5.75158216e-05,7.65109932e-05
-3.45,8.97415406e-07,8.68931167e-06,2.19603092e-05,3.87916409e-05,5.7695912e-05,7.69104204e-05
-3.5,8.99755021e-07,8.70673648e-06,2.20058492e-05,3.88835916e-05,5.78706543e-05,7.72905689e-05
-3.55,9.02084948e-07,8.72399841e-06,2.2050791e-05,3.89738576e-05,5.80404781e-05,7.76520622e-05
-3.6,9.04405602e-07,8.74110208e-06,2.20951552e-05,3.90625138e-05,5.82057431e-05,7.79957033e-05
-3.65,9.06717419e-07,8.75805193e-06,2.21389611e-05,3.91496297e-05,5.83667573e-05,7.83224926e-05
-3.7,9.09020857e-07,8.77485222e-06,2.21822273e-05,3.92352707e-05,5.85237896e-05,7.86336206e-05
-3.75,9.11316406e-07,8.7915071e-06,2.22249716e-05,3.93194979e-05,5.86770782e-05,7.89304225e-05
-3.8,9.13604589e-07,8.80802059e-06,2.22672106e-05,3.94023687e-05,5.88268363e-05,7.92142978e-05
-3.85,9.1588597e-07,8.8243966e-06,2.23089604e-05,3.94839371e-05,5.89732573e-05,7.94866128e-05
-3.9,9.1816116e-07,8.84063893e-06,2.23502363e-05,3.95642539e-05,5.9116517e-05,7.97486179e-05
-3.95,9.20430822e-07,8.85675133e-06,2.23910528e-05,3.9643367e-05,5.92567767e-05,8.00013992e-05
-4.0,9.22695679e-07,8.87273749e-06,2.24314239e-05,3.97213215e-05,5.93941851e-05,8.02458693e-05
-4.05,9.24956523e-07,8.88860109e-06,2.24713628e-05,3.97981602e-05,5.95288794e-05,8.04827835e-05
-4.1,9.27214218e-07,8.90434577e-06,2.25108823e-05,3.98739235e-05,5.96609868e-05,8.07127673e-05
-4.15,9.29469714e-07,8.91997523e-06,2.25499947e-05,3.99486497e-05,5.97906258e-05,8.09363451e-05
-4.2,9.31724052e-07,8.93549322e-06,2.25887116e-05,4.0022375e-05,5.99179065e-05,8.11539634e-05
-4.25,9.33978369e-07,8.95090356e-06,2.26270444e-05,4.00951338e-05,6.00429321e-05,8.13660091e-05
-4.3,9.36233917e-07,8.96621019e-06,2.26650037e-05,4.01669588e-05,6.01657987e-05,8.15728232e-05
-4.35,9.38492063e-07,8.98141725e-06,2.27026e-05,4.0237881e-05,6.02865968e-05,8.177471e-05
-4.4,9.40754302e-07,8.99652904e-06,2.27398434e-05,4.03079301e-05,6.04054109e-05,8.19719436e-05
-4.45,9.43022268e-07,9.01155014e-06,2.27767437e-05,4.03771341e-05,6.05223209e-05,8.21647738e-05
-4.5,9.45297743e-07,9.0264854e-06,2.28133102e-05,4.04455199e-05,6.06374016e-05,8.23534288e-05
-4.55,9.47582665e-07,9.04134005e-06,2.28495522e-05,4.05131131e-05,6.07507237e-05,8.25381188e-05
-4.6,9.49879144e-07,9.05611971e-06,2.28854788e-05,4.0579938e-05,6.08623539e-05,8.2719038e-05
-4.65,9.52189467e-07,9.07083047e-06,2.29210987e-05,4.0646018e-05,6.09723551e-05,8.28963662e-05
-4.7,9.54516112e-07,9.08547895e-06,2.29564207e-05,4.07113753e-05,6.10807868e-05,8.30702707e-05
-4.75,9.56861756e-07,9.10007237e-06,2.29914536e-05,4.07760314e-05,6.11877055e-05,8.32409071e-05
-4.8,9.59229291e-07,9.11461861e-06,2.30262062e-05,4.08400066e-05,6.12931645e-05,8.34084208e-05
-4.85,9.61621828e-07,9.1291263e-06,2.30606872e-05,4.09033206e-05,6.13972145e-05,8.35729478e-05
-4.9,9.64042712e-07,9.14360487e-06,2.30949057e-05,4.09659921e-05,6.14999036e-05,8.37346153e-05
-4.95,9.66495534e-07,9.15806466e-06,2.3128871e-05,4.10280393e-05,6.16012774e-05,8.38935427e-05
-5.0,9.68984138e-07,9.17251698e-06,2.31625927e-05,4.10894796e-05,6.17013795e-05,8.40498423e-05
-5.05,9.71512635e-07,9.18697422e-06,2.31960809e-05,4.11503297e-05,6.18002512e-05,8.42036195e-05
-5.1,9.7408541e-07,9.2014499e-06,2.32293461e-05,4.1210606e-05,6.18979319e-05,8.43549737e-05
-5.15,9.76707136e-07,9.2159588e-06,2.32623997e-05,4.12703243e-05,6.19944592e-05,8.45039986e-05
-5.2,9.79382782e-07,9.23051701e-06,2.32952538e-05,4.13294999e-05,6.20898689e-05,8.46507825e-05
-5.25,9.82117626e-07,9.24514208e-06,2.33279213e-05,4.13881478e-05,6.21841952e-05,8.4795409e-05
-5.3,9.84917259e-07,9.25985304e-06,2.33604163e-05,4.1446283e-05,6.22774707e-05,8.49379572e-05
-5.35,9.877876e-07,9.27467057e-06,2.33927542e-05,4.15039198e-05,6.23697269e-05,8.50785018e-05
-5.4,9.90734904e-07,9.28961705e-06,2.34249517e-05,4.1561073e-05,6.24609936e-05,8.52171138e-05
-5.45,9.93765768e-07,9.30471666e-06,2.34570268e-05,4.16177571e-05,6.25512995e-05,8.53538604e-05
-5.5,9.96887146e-07,9.31999552e-06,2.34889997e-05,4.16739867e-05,6.2640672e-05,8.54888054e-05
-5.55,1.00010635e-06,9.33548172e-06,2.35208922e-05,4.1729777e-05,6.27291377e-05,8.56220096e-05
-5.6,1.00343106e-06,9.35120547e-06,2.35527284e-05,4.17851434e-05,6.2816722e-05,8.57535305e-05
-5.65,1.00686935e-06,9.36719917e-06,2.35845344e-05,4.18401018e-05,6.29034492e-05,8.58834233e-05
-5.7,1.01042964e-06,9.38349754e-06,2.36163392e-05,4.18946691e-05,6.29893431e-05,8.60117401e-05
-5.75,1.01412079e-06,9.40013764e-06,2.36481743e-05,4.19488629e-05,6.30744265e-05,8.61385308e-05
-5.8,1.01795202e-06,9.41715906e-06,2.36800743e-05,4.20027021e-05,6.31587216e-05,8.62638429e-05
-5.85,1.02193298e-06,9.43460393e-06,2.37120769e-05,4.20562068e-05,6.32422501e-05,8.6387722e-05
-5.9,1.02607372e-06,9.45251704e-06,2.37442231e-05,4.21093989e-05,6.33250331e-05,8.65102114e-05
-5.95,1.03038469e-06,9.47094594e-06,2.37765578e-05,4.21623017e-05,6.34070915e-05,8.66313526e-05
-6.0,1.03487679e-06,9.489941e-06,2.38091297e-05,4.22149411e-05,6.34884458e-05,8.67511852e-05
-6.05,1.03956132e-06,9.5095555e-06,2.38419915e-05,4.2267345e-05,6.35691167e-05,8.68697473e-05
-6.1,1.04445004e-06,9.52984573e-06,2.38752004e-05,4.23195441e-05,6.36491248e-05,8.69870754e-05
-6.15,1.0495551e-06,9.55087099e-06,2.39088183e-05,4.23715721e-05,6.37284908e-05,8.71032045e-05
-6.2,1.05488912e-06,9.57269378e-06,2.39429116e-05,4.24234658e-05,6.38072362e-05,8.72181681e-05
-6.25,1.06046516e-06,9.59537974e-06,2.39775522e-05,4.24752659e-05,6.38853828e-05,8.73319986e-05
-6.3,1.06629669e-06,9.61899782e-06,2.40128171e-05,4.2527017e-05,6.39629535e-05,8.74447272e-05
-6.35,1.07239766e-06,9.64362028e-06,2.40487889e-05,4.25787678e-05,6.40399723e-05,8.75563841e-05
-6.4,1.07878244e-06,9.66932274e-06,2.40855561e-05,4.26305722e-05,6.41164645e-05,8.76669984e-05
-6.45,1.08546587e-06,9.69618429e-06,2.41232132e-05,4.26824886e-05,6.41924571e-05,8.77765985e-05
-6.5,1.09246322e-06,9.72428747e-06,2.41618608e-05,4.27345816e-05,6.42679791e-05,8.7885212e-05
-6.55,1.0997902e-06,9.75371837e-06,2.42016062e-05,4.27869211e-05,6.4343062e-05,8.79928661e-05
-6.6,1.107463e-06,9.7845666e-06,2.42425633e-05,4.28395837e-05,6.44177398e-05,8.80995875e-05
