vds,vb1,vb2,vb3,vb4,vb5,vb6
0.0,3.37905352e-26,-1.02030581e-21,-3.89015094e-21,1.97056743e-19,2.71821099e-24,2.70364966e-19
-0.05,2.92509225e-06,1.16095597e-05,1.80772676e-05,2.32533272e-05,2.75805634e-05,3.13228686e-05
-0.1,5.27448055e-06,2.2626211e-05,3.56068762e-05,4.599888e-05,5.46861129e-05,6.21975693e-05
-0.15,7.08974643e-06,3.30845909e-05,5.26216874e-05,6.82682457e-05,8.13472384e-05,9.26538706e-05
-0.2,8.3938724e-06,4.29948353e-05,6.91311334e-05,9.00704294e-05,0.000107572645,0.000122700252
-0.25,9.22686416e-06,5.23611273e-05,8.51388142e-05,0.000111408714,0.00013336541,0.000152339646
-0.3,9.68497717e-06,6.1186222e-05,0.000100646883,0.000132284935,0.000158727165,0.000181573544
-0.35,9.92490197e-06,6.94725544e-05,0.000115657136,0.000152700563,0.000183659171,0.00021040306
-0.4,1.00747027e-05,7.72225193e-05,0.000130171282,0.000172656979,0.000208162596,0.000238829215
-0.45,1.0191074e-05,8.44385574e-05,0.000144191014,0.000192155539,0.000232238582,0.000266853
-0.5,1.02931348e-05,9.11232039e-05,0.00015771802,0.000211197595,0.000255888266,0.000294475403
-0.55,1.03875653e-05,9.72791459e-05,0.000170753993,0.0002297845,0.000279112784,0.000321697409
-0.6,1.04770929e-05,0.000102909312,0.000183300633,0.000247917604,0.000301913271,0.000348520002
-0.65,1.05630398e-05,0.000108017026,0.000195359647,0.00026559826,0.000324290862,0.000374944168
-0.7,1.06461531e-05,0.000112606269,0.00020693275,0.000282827823,0.000346246694,0.00040097089
-0.75,1.07269101e-05,0.000116682176,0.000218021672,0.000299607648,0.0003677819,0.000426601151
-0.8,1.08056465e-05,0.000120251941,0.000228628159,0.000315939091,0.000388897619,0.000451835938
-0.85,1.08826147e-05,0.000123326549,0.000238753979,0.000331823513,0.000409594984,0.000476676232
-0.9,1.09580138e-05,0.000125923975,0.000248400928,0.000347262273,0.000429875134,0.000501123018
-0.95,1.10320067e-05,0.000128074507,0.000257570843,0.000362256737,0.000449739205,0.000525177279
-1.0,1.11047297e-05,0.000129827391,0.000266265611,0.000376808273,0.000469188334,0.000548839999
-1.05,1.11762995e-05,0.000131253388,0.000274487195,0.000390918251,0.000488223659,0.000572112161
-1.1,1.12468166e-05,0.000132435117,0.000282237657,0.000404588049,0.000506846319,0.000594994749
-1.15,1.13163692e-05,0.000133447792,0.000289519208,0.000417819052,0.000525057453,0.000617488745
-1.2,1.13850351e-05,0.000134346236,0.000296334271,0.000430612649,0.000542858202,0.000639595134
-1.25,1.14528834e-05,0.000135165121,0.000302685582,0.000442970244,0.000560249707,0.000661314898
-1.3,1.15199758e-05,0.000135925326,0.000308576357,0.000454893248,0.000577233111,0.00068264902
-1.35,1.15863678e-05,0.000136639683,0.000314010546,0.000466383091,0.000593809559,0.000703598484
-1.4,1.16521097e-05,0.000137316537,0.000318993264,0.000477441222,0.000609980198,0.000724164274
-1.45,1.17172467e-05,0.000137961673,0.000323531476,0.000488069114,0.000625746178,0.000744347374
-1.5,1.17818202e-05,0.000138579353,0.000327635116,0.000498268272,0.00064110865,0.000764148768
-1.55,1.18458679e-05,0.000139172862,0.000331318793,0.000508040245,0.000656068772,0.000783569441
-1.6,1.19094244e-05,0.000139744833,0.000334604116,0.000517386635,0.000670627703,0.000802610378
-1.65,1.19725212e-05,0.000140297433,0.000337522102,0.000526309119,0.000684786609,0.000821272565
-1.7,1.20351876e-05,0.000140832482,0.000340114098,0.000534809475,0.000698546662,0.000839556991
-1.75,1.20974503e-05,0.000141351534,0.000342429151,0.000542889614,0.000711909042,0.000857464642
-1.8,1.21593343e-05,0.000141855933,0.000344517675,0.00055055164,0.000724874938,0.000874996508
-1.85,1.22208625e-05,0.000142346852,0.000346424669,0.000557797921,0.00073744555,0.000892153581
-1.9,1.22820563e-05,0.000142825324,0.000348186115,0.000564631209,0.000749622093,0.000908936854
-1.95,1.23429356e-05,0.000143292265,0.000349829023,0.000571054809,0.000761405798,0.000925347322
-2.0,1.24035188e-05,0.000143748492,0.00035137329,0.00057707284,0.000772797919,0.000941385983
-2.05,1.24638231e-05,0.000144194736,0.000352833741,0.000582690621,0.000783799737,0.000957053838
-2.1,1.25238647e-05,0.000144631657,0.000354221702,0.00058791525,0.000794412564,0.000972351892
-2.15,1.25836587e-05,0.000145059849,0.000355546078,0.000592756411,0.00080463776,0.000987281155
-2.2,1.26432191e-05,0.000145479855,0.000356814053,0.00059722742,0.000814476737,0.00100184264
-2.25,1.27025592e-05,0.000145892164,0.000358031548,0.000601346356,0.000823930981,0.00101603737
-2.3,1.27616916e-05,0.000146297228,0.000359203533,0.000605136817,0.000833002073,0.00102986637
-2.35,1.28206278e-05,0.000146695458,0.000360334239,0.000608627667,0.000841691718,0.00104333067
-2.4,1.2879379e-05,0.000147087231,0.000361427306,0.000611851288,0.00085000179,0.00105643133
-2.45,1.29379555e-05,0.000147472896,0.0003624859,0.000614840747,0.000857934391,0.00106916941
-2.5,1.29963671e-05,0.000147852773,0.000363512792,0.000617627042,0.000865491935,0.00108154597
-2.55,1.30546232e-05,0.000148227159,0.000364510429,0.000620237425,0.000872677265,0.00109356212
-2.6,1.31127326e-05,0.00014859633,0.000365480981,0.000622694941,0.000879493823,0.00110521896
-2.65,1.31707036e-05,0.00014896054,0.000366426382,0.000625018753,0.000885945887,0.00111651765
-2.7,1.32285441e-05,0.000149320028,0.000367348367,0.000627224758,0.000892038895,0.00112745935
-2.75,1.32862616e-05,0.000149675013,0.000368248498,0.00062932621,0.000897779869,0.00113804528
-2.8,1.33438633e-05,0.000150025704,0.000369128183,0.000631334252,0.000903177939,0.00114827673
-2.85,1.34013562e-05,0.000150372291,0.000369988702,0.000633258339,0.000908244884,0.00115815501
-2.9,1.34587467e-05,0.000150714957,0.000370831216,0.00063510656,0.000912995553,0.00116768155
-2.95,1.35160412e-05,0.000151053871,0.000371656787,0.000636885894,0.000917447948,0.00117685788
-3.0,1.35732458e-05,0.000151389191,0.000372466384,0.000638602402,0.000921622779,0.00118568566
-3.05,1.36303665e-05,0.000151721066,0.000373260898,0.000640261383,0.000925542509,0.00119416671
-3.1,1.3687409e-05,0.000152049638,0.000374041146,0.0006418675,0.000929230137,0.00120230311
-3.15,1.3744379e-05,0.000152375039,0.000374807884,0.000643424873,0.000932708059,0.00121009719
-3.2,1.38012823e-05,0.000152697394,0.000375561807,0.000644937162,0.000935997249,0.00121755172
-3.25,1.38581244e-05,0.00015301682,0.000376303561,0.000646407636,0.000939116807,0.00122466993
-3.3,1.3914911e-05,0.00015333343,0.000377033743,0.000647839223,0.000942083817,0.00123145574
-3.35,1.3971648e-05,0.000153647329,0.000377752908,0.000649234555,0.000944913392,0.00123791393
-3.4,1.40283414e-05,0.000153958618,0.000378461574,0.00065059601,0.000947618824,0.00124405043
-3.45,1.40849975e-05,0.000154267393,0.000379160223,0.000651925742,0.000950211779,0.00124987261
-3.5,1.41416228e-05,0.000154573742,0.000379849305,0.000653225707,0.000952702499,0.00125538968
-3.55,1.41982244e-05,0.000154877755,0.00038052924,0.000654497688,0.000955099982,0.00126061298
-3.6,1.42548097e-05,0.000155179512,0.000381200423,0.000655743314,0.000957412163,0.00126555613
-3.65,1.43113869e-05,0.000155479093,0.000381863225,0.000656964078,0.000959646051,0.00127023492
-3.7,1.43679649e-05,0.000155776575,0.000382517991,0.00065816135,0.000961807863,0.00127466675
-3.75,1.44245533e-05,0.000156072032,0.000383165049,0.000659336392,0.000963903129,0.00127886993
-3.8,1.44811628e-05,0.000156365534,0.000383804706,0.000660490367,0.000965936788,0.00128286287
-3.85,1.4537805e-05,0.000156657152,0.000384437252,0.000661624351,0.000967913264,0.00128666342
-3.9,1.45944929e-05,0.000156946954,0.00038506296,0.000662739341,0.000969836531,0.00129028837
-3.95,1.46512409e-05,0.000157235008,0.000385682091,0.000663836262,0.000971710174,0.00129375321
-4.0,1.47080646e-05,0.000157521382,0.000386294887,0.000664915973,0.000973537435,0.00129707203
-4.05,1.47649817e-05,0.000157806145,0.000386901582,0.000665979275,0.000975321253,0.00130025752
-4.1,1.48220114e-05,0.000158089364,0.000387502395,0.000667026914,0.000977064304,0.00130332105
-4.15,1.48791753e-05,0.000158371113,0.000388097537,0.000668059589,0.000978769026,0.00130627278
-4.2,1.49364969e-05,0.000158651464,0.000388687206,0.000669077952,0.000980437649,0.00130912179
-4.25,1.49940022e-05,0.000158930496,0.000389271594,0.000670082614,0.000982072217,0.00131187618
-4.3,1.50517198e-05,0.000159208289,0.000389850883,0.000671074149,0.00098367461,0.00131454322
-4.35,1.51096811e-05,0.000159484931,0.000390425249,0.000672053097,0.000985246554,0.00131712939
-4.4,1.51679205e-05,0.000159760516,0.000390994862,0.000673019965,0.000986789647,0.00131964055
-4.45,1.52264756e-05,0.000160035145,0.000391559885,0.00067397523,0.000988305362,0.00132208194
-4.5,1.52853876e-05,0.000160308928,0.000392120479,0.000674919342,0.000989795067,0.00132445832
-4.55,1.53447009e-05,0.000160581985,0.000392676802,0.000675852728,0.000991260029,0.00132677397
-4.6,1.54044643e-05,0.000160854446,0.000393229008,0.000676775789,0.000992701428,0.00132903279
-4.65,1.54647303e-05,0.000161126457,0.000393777254,0.000677688906,0.00099412036,0.00133123832
-4.7,1.55255558e-05,0.000161398176,0.000394321695,0.000678592441,0.00099551785,0.0013333938
-4.75,1.55870024e-05,0.000161669777,0.00039486249,0.000679486737,0.000996894854,0.00133550218
-4.8,1.56491363e-05,0.000161941451,0.000395399803,0.000680372121,0.000998252267,0.00133756616
-4.85,1.57120286e-05,0.000162213409,0.000395933803,0.000681248903,0.000999590926,0.00133958822
-4.9,1.57757559e-05,0.000162485883,0.000396464666,0.000682117383,0.00100091162,0.00134157065
-4.95,1.58404001e-05,0.000162759126,0.000396992581,0.000682977845,0.00100221508,0.00134351556
-5.0,1.59060486e-05,0.000163033418,0.000397517746,0.000683830566,0.00100350202,0.00134542489
-5.05,1.59727948e-05,0.000163309064,0.000398040378,0.000684675813,0.00100477307,0.00134730044
-5.1,1.60407385e-05,0.000163586395,0.000398560709,0.000685513844,0.00100602886,0.00134914388
-5.15,1.61099852e-05,0.000163865775,0.000399078992,0.000686344915,0.00100726998,0.00135095677
-5.2,1.61806476e-05,0.000164147599,0.000399595504,0.000687169275,0.00100849696,0.00135274054
-5.25,1.62528445e-05,0.000164432296,0.000400110547,0.000687987173,0.00100971034,0.00135449654
-5.3,1.63267023e-05,0.000164720331,0.000400624456,0.000688798862,0.00101091061,0.00135622603
-5.35,1.64023539e-05,0.000165012207,0.000401137597,0.000689604593,0.00101209823,0.00135793018
-5.4,1.647994e-05,0.000165308466,0.000401650375,0.000690404627,0.00101327366,0.00135961009
-5.45,1.65596086e-05,0.000165609694,0.000402163234,0.000691199234,0.00101443733,0.00136126678
-5.5,1.66415156e-05,0.00016591652,0.000402676664,0.000691988694,0.00101558963,0.00136290123
-5.55,1.67258245e-05,0.000166229616,0.000403191205,0.000692773306,0.00101673096,0.00136451433
-5.6,1.68127071e-05,0.000166549706,0.00040370745,0.000693553385,0.00101786171,0.00136610696
-5.65,1.69023433e-05,0.000166877562,0.000404226048,0.000694329273,0.00101898223,0.00136767991
-5.7,1.69949214e-05,0.000167214005,0.000404747713,0.000695101337,0.00102009288,0.00136923394
-5.75,1.70906384e-05,0.000167559912,0.000405273222,0.00069586998,0.00102119401,0.00137076976
-5.8,1.71896995e-05,0.000167916215,0.000405803426,0.00069663564,0.00102228597,0.00137228807
-5.85,1.72923193e-05,0.000168283901,0.000406339252,0.000697398798,0.0010233691,0.0013737895
-5.9,1.7398721e-05,0.000168664017,0.000406881705,0.000698159985,0.00102444374,0.00137527466
-5.95,1.75091368e-05,0.000169057667,0.000407431876,0.000698919785,0.00102551026,0.00137674414
-6.0,1.76238082e-05,0.00016946602,0.000407990948,0.000699678842,0.001026569,0.00137819848
-6.05,1.77429861e-05,0.000169890305,0.000408560195,0.000700437869,0.00102762035,0.00137963821
-6.1,1.78669304e-05,0.000170331817,0.000409140993,0.000701197649,0.0010286647,0.00138106384
-6.15,1.79959109e-05,0.000170791915,0.000409734821,0.000701959049,0.00102970246,0.00138247586
-6.2,1.81302065e-05,0.000171272025,0.000410343265,0.00070272302,0.00103073409,0.00138387474
-6.25,1.82701062e-05,0.000171773641,0.000410968026,0.00070349061,0.00103176006,0.00138526093
-6.3,1.84159083e-05,0.000172298326,0.000411610919,0.000704262968,0.0010327809,0.00138663488
-6.35,1.8567921e-05,0.000172847713,0.000412273883,0.000705041353,0.00103379718,0.00138799704
-6.4,1.87264623e-05,0.000173423504,0.000412958981,0.00070582714,0.00103480952,0.00138934783
-6.45,1.889186e-05,0.000174027474,0.000413668408,0.000706621833,0.00103581862,0.0013906877
-6.5,1.90644519e-05,0.00017466147,0.000414404488,0.000707427065,0.00103682523,0.00139201709
-6.55,1.92445854e-05,0.00017532741,0.000415169686,0.000708244613,0.00103783019,0.00139333645
-6.6,1.94326183e-05,0.000176027286,0.000415966606,0.0007090764,0.00103883443,0.00139464626
