vds,vb1,vb2,vb3,vb4,vb5,vb6
0.0,-2.01728053e-22,9.035110420000001e-26,3.40579281e-25,3.75113079e-26,2.06530652e-20,-8.866921780000001e-25
-0.05,4.80415069e-07,2.12082415e-06,3.49459531e-06,4.67835326e-06,5.72665929e-06,6.67702254e-06
-0.1,7.69293079e-07,4.03871285e-06,6.79457502e-06,9.17006535e-06,1.12735512e-05,1.31801301e-05
-0.15,9.39759805e-07,5.82266515e-06,9.96866155e-06,1.35436305e-05,1.67089694e-05,1.95774351e-05
-0.2,1.02168135e-06,7.48885377e-06,1.30329849e-05,1.78151549e-05,2.20490004e-05,2.58850063e-05
-0.25,1.0509115e-06,9.04110295e-06,1.59913471e-05,2.19884397e-05,2.72974461e-05,3.2106647e-05
-0.3,1.06048961e-06,1.04803588e-05,1.88446627e-05,2.60643973e-05,3.24552193e-05,3.82432706e-05
-0.35,1.06438278e-06,1.18069068e-05,2.159317e-05,3.00432622e-05,3.75225533e-05,4.42951102e-05
-0.4,1.06646954e-06,1.30208968e-05,2.423695e-05,3.39251101e-05,4.24995221e-05,5.02622384e-05
-0.45,1.06785452e-06,1.41224765e-05,2.67760475e-05,3.77099793e-05,4.73861619e-05,5.61446905e-05
-0.5,1.06891259e-06,1.51118412e-05,2.92104996e-05,4.13978995e-05,5.21825001e-05,6.19424925e-05
-0.55,1.06979462e-06,1.598928e-05,3.15403432e-05,4.49888988e-05,5.68885623e-05,6.76556686e-05
-0.6,1.07057036e-06,1.6755249e-05,3.37656166e-05,4.84830047e-05,6.15043733e-05,7.32842422e-05
-0.65,1.07127587e-06,1.7410511e-05,3.58863607e-05,5.1880245e-05,6.60299583e-05,7.8828237e-05
-0.7,1.07193154e-06,1.79564106e-05,3.79026195e-05,5.51806478e-05,7.0465342e-05,8.42876763e-05
-0.75,1.07254978e-06,1.83954247e-05,3.98144415e-05,5.83842416e-05,7.48105496e-05,8.96625837e-05
-0.8,1.07313865e-06,1.87322222e-05,4.16218811e-05,6.14910553e-05,7.90656062e-05,9.49529826e-05
-0.85,1.07370364e-06,1.89754158e-05,4.33250005e-05,6.45011182e-05,8.32305369e-05,0.000100158896
-0.9,1.07424868e-06,1.91394082e-05,4.49238729e-05,6.74144605e-05,8.73053671e-05,0.000105280349
-0.95,1.07477668e-06,1.92439815e-05,4.64185865e-05,7.0231113e-05,9.12901221e-05,0.000110317363
-1.0,1.07528986e-06,1.93097688e-05,4.78092507e-05,7.29511074e-05,9.51848277e-05,0.000115269964
-1.05,1.07578999e-06,1.93529098e-05,4.90960057e-05,7.55744766e-05,9.89895095e-05,0.000120138173
-1.1,1.07627848e-06,1.93834768e-05,5.02790366e-05,7.81012549e-05,0.000102704193,0.000124922015
-1.15,1.07675649e-06,1.9407003e-05,5.13585963e-05,8.05314782e-05,0.000106328906,0.000129621514
-1.2,1.077225e-06,1.94264066e-05,5.23350411e-05,8.28651847e-05,0.000109863673,0.000134236694
-1.25,1.07768481e-06,1.9443247e-05,5.32088897e-05,8.51024149e-05,0.000113308521,0.000138767577
-1.3,1.07813665e-06,1.94583913e-05,5.39809209e-05,8.7243213e-05,0.000116663478,0.000143214189
-1.35,1.07858112e-06,1.94723463e-05,5.46523373e-05,8.9287627e-05,0.000119928571,0.000147576553
-1.4,1.07901876e-06,1.94854232e-05,5.52250394e-05,9.12357105e-05,0.000123103829,0.000151854693
-1.45,1.07945005e-06,1.9497823e-05,5.5702069e-05,9.30875239e-05,0.000126189278,0.000156048633
-1.5,1.07987541e-06,1.95096815e-05,5.60882724e-05,9.48431365e-05,0.00012918495,0.000160158399
-1.55,1.08029521e-06,1.95210942e-05,5.63911165e-05,9.65026296e-05,0.000132090873,0.000164184013
-1.6,1.0807098e-06,1.95321307e-05,5.66212903e-05,9.80661002e-05,0.000134907079,0.000168125501
-1.65,1.08111948e-06,1.95428437e-05,5.67923648e-05,9.95336667e-05,0.000137633599,0.000171982887
-1.7,1.08152453e-06,1.95532737e-05,5.69190415e-05,0.000100905477,0.000140270468,0.000175756197
-1.75,1.08192521e-06,1.95634532e-05,5.70147031e-05,0.000102181719,0.000142817719,0.000179445456
-1.8,1.08232174e-06,1.95734084e-05,5.70897489e-05,0.000103362639,0.00014527539,0.000183050689
-1.85,1.08271435e-06,1.9583161e-05,5.71513538e-05,0.000104448564,0.000147643519,0.000186571923
-1.9,1.08310322e-06,1.95927293e-05,5.72041265e-05,0.000105439943,0.000149922149,0.000190009182
-1.95,1.08348855e-06,1.96021287e-05,5.72509395e-05,0.000106337399,0.000152111325,0.000193362495
-2.0,1.08387049e-06,1.96113727e-05,5.72935815e-05,0.00010714182,0.000154211097,0.000196631887
-2.05,1.08424921e-06,1.96204728e-05,5.73331863e-05,0.000107854489,0.000156221519,0.000199817387
-2.1,1.08462485e-06,1.96294394e-05,5.73704921e-05,0.000108477289,0.000158142654,0.000202919023
-2.15,1.08499754e-06,1.96382814e-05,5.74059954e-05,0.000109012986,0.00015997457,0.000205936823
-2.2,1.08536741e-06,1.9647007e-05,5.74400412e-05,0.000109465625,0.000161717351,0.000208870818
-2.25,1.08573459e-06,1.96556233e-05,5.74728772e-05,0.000109840961,0.000163371089,0.000211721038
-2.3,1.08609917e-06,1.96641369e-05,5.75046867e-05,0.000110146791,0.000164935898,0.000214487515
-2.35,1.08646127e-06,1.96725538e-05,5.75356093e-05,0.000110392888,0.000166411916,0.000217170282
-2.4,1.08682099e-06,1.96808792e-05,5.75657539e-05,0.000110590305,0.00016779931,0.000219769374
-2.45,1.0871784e-06,1.96891182e-05,5.75952075e-05,0.000110750126,0.000169098292,0.000222284829
-2.5,1.08753362e-06,1.96972752e-05,5.76240411e-05,0.000110882196,0.000170309131,0.000224716684
-2.55,1.08788671e-06,1.97053543e-05,5.76523135e-05,0.000110994373,0.000171432178,0.000227064981
-2.6,1.08823776e-06,1.97133595e-05,5.76800741e-05,0.000111092439,0.000172467892,0.000229329766
-2.65,1.08858684e-06,1.97212941e-05,5.77073654e-05,0.000111180432,0.000173416892,0.000231511087
-2.7,1.08893404e-06,1.97291615e-05,5.77342237e-05,0.000111261097,0.000174280016,0.000233608998
-2.75,1.08927941e-06,1.97369648e-05,5.77606809e-05,0.000111336291,0.000175058419,0.000235623558
-2.8,1.08962305e-06,1.97447067e-05,5.77867649e-05,0.000111407281,0.000175753704,0.000237554833
-2.85,1.08996502e-06,1.975239e-05,5.78125007e-05,0.000111474946,0.000176368105,0.0002394029
-2.9,1.0903054e-06,1.9760017e-05,5.78379103e-05,0.000111539909,0.000176904716,0.000241167846
-2.95,1.09064427e-06,1.97675901e-05,5.78630137e-05,0.000111602623,0.000177367763,0.00024284977
-3.0,1.09098171e-06,1.97751116e-05,5.78878289e-05,0.000111663427,0.000177762834,0.000244448793
-3.05,1.09131782e-06,1.97825833e-05,5.79123721e-05,0.00011172258,0.000178096969,0.000245965055
-3.1,1.0916527e-06,1.97900073e-05,5.79366582e-05,0.000111780284,0.000178378457,0.00024739873
-3.15,1.09198645e-06,1.97973855e-05,5.79607009e-05,0.0001118367,0.000178616272,0.000248750028
-3.2,1.09231921e-06,1.98047194e-05,5.79845125e-05,0.00011189196,0.00017881926,0.000250019211
-3.25,1.09265112e-06,1.98120108e-05,5.80081047e-05,0.000111946173,0.000178995372,0.00025120661
-3.3,1.09298234e-06,1.98192613e-05,5.80314878e-05,0.000111999431,0.000179151188,0.000252312648
-3.35,1.09331307e-06,1.98264724e-05,5.80546719e-05,0.000112051813,0.000179291805,0.000253337871
-3.4,1.09364353e-06,1.98336456e-05,5.8077666e-05,0.000112103387,0.000179420998,0.000254282995
-3.45,1.09397396e-06,1.98407823e-05,5.81004785e-05,0.00011215421,0.000179541489,0.000255148964
-3.5,1.09430466e-06,1.9847884e-05,5.81231175e-05,0.000112204335,0.000179655222,0.000255937039
-3.55,1.09463597e-06,1.98549523e-05,5.81455902e-05,0.000112253809,0.00017976359,0.000256648903
-3.6,1.09496826e-06,1.98619885e-05,5.81679036e-05,0.000112302672,0.000179867597,0.00025728681
-3.65,1.09530198e-06,1.98689944e-05,5.81900642e-05,0.00011235096,0.000179967982,0.000257853749
-3.7,1.09563764e-06,1.98759716e-05,5.8212078e-05,0.000112398709,0.0001800653,0.000258353616
-3.75,1.09597581e-06,1.9882922e-05,5.82339507e-05,0.000112445947,0.000180159972,0.000258791355
-3.8,1.09631713e-06,1.98898476e-05,5.82556879e-05,0.000112492702,0.00018025233,0.00025917297
-3.85,1.09666235e-06,1.98967507e-05,5.82772945e-05,0.000112538999,0.000180342635,0.000259505366
-3.9,1.09701229e-06,1.99036338e-05,5.82987756e-05,0.000112584863,0.000180431103,0.000259795964
-3.95,1.09736789e-06,1.99105e-05,5.83201356e-05,0.000112630313,0.000180517908,0.000260052161
-4.0,1.09773018e-06,1.99173526e-05,5.83413791e-05,0.000112675371,0.000180603199,0.000260280795
-4.05,1.09810032e-06,1.99241955e-05,5.83625104e-05,0.000112720053,0.0001806871,0.000260487764
-4.1,1.09847961e-06,1.99310331e-05,5.83835335e-05,0.000112764378,0.000180769721,0.000260677861
-4.15,1.09886947e-06,1.99378707e-05,5.84044528e-05,0.00011280836,0.000180851153,0.000260854816
-4.2,1.09927148e-06,1.99447142e-05,5.84252721e-05,0.000112852015,0.000180931481,0.00026102145
-4.25,1.09968736e-06,1.99515705e-05,5.84459957e-05,0.000112895357,0.000181010777,0.000261179861
-4.3,1.10011902e-06,1.99584476e-05,5.84666279e-05,0.000112938398,0.000181089105,0.000261331605
-4.35,1.10056854e-06,1.99653545e-05,5.8487173e-05,0.000112981151,0.000181166525,0.000261477841
-4.4,1.10103817e-06,1.99723017e-05,5.85076359e-05,0.000113023626,0.000181243089,0.000261619442
-4.45,1.10153038e-06,1.9979301e-05,5.85280218e-05,0.000113065835,0.000181318845,0.000261757072
-4.5,1.10204784e-06,1.99863659e-05,5.85483362e-05,0.000113107787,0.000181393836,0.00026189125
-4.55,1.10259344e-06,1.99935115e-05,5.85685856e-05,0.000113149493,0.000181468102,0.000262022385
-4.6,1.10317029e-06,2.0000755e-05,5.85887771e-05,0.000113190962,0.00018154168,0.000262150805
-4.65,1.10378174e-06,2.00081158e-05,5.86089191e-05,0.000113232201,0.000181614604,0.00026227678
-4.7,1.1044314e-06,2.00156153e-05,5.86290208e-05,0.00011327322,0.000181686904,0.000262400534
-4.75,1.10512311e-06,2.00232776e-05,5.86490932e-05,0.000113314026,0.00018175861,0.000262522256
-4.8,1.10586099e-06,2.00311294e-05,5.86691489e-05,0.000113354627,0.000181829749,0.000262642106
-4.85,1.10664944e-06,2.00392004e-05,5.86892024e-05,0.00011339503,0.000181900345,0.000262760226
-4.9,1.10749313e-06,2.00475232e-05,5.87092705e-05,0.000113435244,0.000181970421,0.000262876737
-4.95,1.10839704e-06,2.00561339e-05,5.87293727e-05,0.000113475276,0.00018204,0.000262991747
-5.0,1.10936643e-06,2.00650718e-05,5.87495313e-05,0.000113515134,0.000182109102,0.000263105351
-5.05,1.11040686e-06,2.00743801e-05,5.8769772e-05,0.000113554825,0.000182177746,0.000263217635
-5.1,1.11152424e-06,2.00841059e-05,5.87901242e-05,0.000113594358,0.00018224595,0.000263328676
-5.15,1.11272477e-06,2.00943005e-05,5.88106214e-05,0.000113633743,0.00018231373,0.000263438543
-5.2,1.11401499e-06,2.01050193e-05,5.88313019e-05,0.000113672989,0.000182381104,0.000263547302
-5.25,1.11540176e-06,2.01163225e-05,5.88522089e-05,0.000113712109,0.000182448086,0.000263655009
-5.3,1.1168923e-06,2.01282749e-05,5.88733911e-05,0.000113751114,0.00018251469,0.000263761717
-5.35,1.11849416e-06,2.01409462e-05,5.88949034e-05,0.00011379002,0.00018258093,0.000263867477
-5.4,1.12021524e-06,2.01544115e-05,5.89168074e-05,0.000113828842,0.000182646819,0.000263972332
-5.45,1.12206382e-06,2.01687511e-05,5.89391717e-05,0.000113867601,0.00018271237,0.000264076326
-5.5,1.12404849e-06,2.01840508e-05,5.89620727e-05,0.000113906318,0.000182777594,0.000264179497
-5.55,1.12617825e-06,2.02004022e-05,5.89855951e-05,0.00011394502,0.000182842503,0.000264281881
-5.6,1.12846243e-06,2.02179028e-05,5.90098326e-05,0.000113983735,0.00018290711,0.000264383512
-5.65,1.13091074e-06,2.02366563e-05,5.90348883e-05,0.0001140225,0.000182971425,0.000264484422
-5.7,1.13353326e-06,2.02567725e-05,5.90608755e-05,0.000114061353,0.000183035461,0.000264584641
-5.75,1.13634044e-06,2.02783678e-05,5.90879182e-05,0.000114100341,0.000183099229,0.000264684195
-5.8,1.13934311e-06,2.0301565e-05,5.91161519e-05,0.000114139517,0.000183162741,0.000264783112
-5.85,1.14255246e-06,2.03264937e-05,5.91457239e-05,0.00011417894,0.000183226013,0.000264881415
-5.9,1.14598006e-06,2.03532906e-05,5.91767943e-05,0.000114218679,0.000183289057,0.000264979129
-5.95,1.14963784e-06,2.03820989e-05,5.92095363e-05,0.000114258813,0.000183351891,0.000265076274
-6.0,1.15353812e-06,2.04130694e-05,5.9244137e-05,0.00011429943,0.000183414532,0.000265172872
-6.05,1.15769359e-06,2.04463598e-05,5.9280798e-05,0.000114340629,0.000183477001,0.000265268942
-6.1,1.1621173e-06,2.04821354e-05,5.93197359e-05,0.000114382522,0.000183539322,0.000265364503
-6.15,1.16682267e-06,2.05205687e-05,5.9361183e-05,0.000114425235,0.000183601522,0.000265459573
-6.2,1.1718235e-06,2.05618398e-05,5.94053877e-05,0.000114468906,0.000183663632,0.000265554169
-6.25,1.17713394e-06,2.06061364e-05,5.94526153e-05,0.000114513691,0.000183725689,0.000265648308
-6.3,1.1827685e-06,2.06536538e-05,5.95031485e-05,0.000114559762,0.000183787734,0.000265742005
-6.35,1.18874205e-06,2.0704595e-05,5.95572875e-05,0.000114607307,0.000183849817,0.000265835278
-6.4,1.19506982e-06,2.07591709e-05,5.96153513e-05,0.000114656536,0.000183911995,0.000265928142
-6.45,1.20176738e-06,2.08175999e-05,5.96776775e-05,0.000114707676,0.000183974332,0.000266020612
-6.5,1.20885066e-06,2.08801084e-05,5.97446229e-05,0.000114760979,0.000184036905,0.000266112707
-6.55,1.21633592e-06,2.09469306e-05,5.98165643e-05,0.000114816716,0.000184099799,0.000266204444
-6.6,1.22423975e-06,2.10183085e-05,5.98938985e-05,0.000114875183,0.000184163114,0.00026629584
