vds,vb1,vb2,vb3,vb4,vb5,vb6
0.0,-3.9319071400000004e-26,9.63315406e-25,-2.6309148100000002e-21,1.8280475499999999e-19,2.93455578e-24,2.51506615e-19
-0.05,2.42894439e-06,1.03344651e-05,1.62857655e-05,2.10814978e-05,2.51118525e-05,2.86121778e-05
-0.1,4.33607062e-06,2.01242688e-05,3.20674766e-05,4.16949591e-05,4.97853087e-05,5.68102717e-05
-0.15,5.76333657e-06,2.94038769e-05,4.7378033e-05,6.18721448e-05,7.40512269e-05,8.46243891e-05
-0.2,6.73663572e-06,3.81830288e-05,6.22265981e-05,8.16218697e-05,9.79181745e-05,0.000112062909
-0.25,7.30743239e-06,4.6465485e-05,7.6616466e-05,0.000100947179,0.000121389036,0.000139128603
-0.3,7.59134051e-06,5.42535791e-05,9.05494833e-05,0.000119849673,0.000144465251,0.000165822799
-0.35,7.73505135e-06,6.15493259e-05,0.000104027142,0.000138330585,0.000167147891,0.000192146455
-0.4,7.82750969e-06,6.83547017e-05,0.000117050848,0.000156391063,0.000189437933,0.000218100431
-0.45,7.90097572e-06,7.46717302e-05,0.000129621991,0.000174032231,0.000211336333,0.000243685563
-0.5,7.96581589e-06,8.05025332e-05,0.000141741955,0.000191255206,0.00023284404,0.000268902682
-0.55,8.02577153e-06,8.58493919e-05,0.000153412131,0.000208061107,0.000253962,0.000293752615
-0.6,8.08245221e-06,9.07148442e-05,0.000164633914,0.000224451052,0.000274691161,0.00031823619
-0.65,8.13667728e-06,9.51018539e-05,0.000175408707,0.00024042616,0.000295032469,0.000342354235
-0.7,8.18892779e-06,9.90141136e-05,0.000185737922,0.000255987552,0.000314986873,0.000366107577
-0.75,8.23951992e-06,0.000102456609,0.000195622983,0.00027113635,0.00033455532,0.000389497043
-0.8,8.28867991e-06,0.00010543669,0.000205065331,0.000285873676,0.000353738756,0.000412523459
-0.85,8.33657989e-06,0.00010796612,0.000214066427,0.000300200655,0.000372538129,0.000435187652
-0.9,8.38335678e-06,0.000110064815,0.000222627761,0.000314118414,0.000390954388,0.00045749045
-0.95,8.42912304e-06,0.00011176669,0.000230750859,0.000327628084,0.000408988481,0.000479432678
-1.0,8.47397314e-06,0.000113125576,0.000238437302,0.000340730797,0.000426641357,0.000501015162
-1.05,8.51798792e-06,0.00011421406,0.000245688741,0.000353427691,0.000443913964,0.00052223873
-1.1,8.56123742e-06,0.000115109373,0.000252506928,0.000365719906,0.000460807253,0.000543104206
-1.15,8.60378298e-06,0.000115875301,0.000258893764,0.000377608591,0.000477322174,0.000563612418
-1.2,8.64567881e-06,0.000116554948,0.000264851364,0.000389094902,0.000493459679,0.000583764191
-1.25,8.68697309e-06,0.00011717444,0.000270382163,0.000400180001,0.000509220721,0.000603560351
-1.3,8.72770898e-06,0.000117749285,0.000275489092,0.000410865065,0.000524606254,0.000623001725
-1.35,8.76792527e-06,0.000118289036,0.000280175851,0.000421151284,0.000539617232,0.000642089139
-1.4,8.80765701e-06,0.00011879995,0.000284447364,0.000431039867,0.000554254614,0.00066082342
-1.45,8.846936e-06,0.000119286399,0.000288310526,0.000440532045,0.00056851936,0.000679205393
-1.5,8.88579118e-06,0.000119751622,0.000291775409,0.000449629082,0.000582412431,0.000697235887
-1.55,8.924249e-06,0.000120198127,0.000294857074,0.000458332278,0.000595934795,0.000714915728
-1.6,8.96233366e-06,0.000120627927,0.000297577956,0.000466642991,0.00060908742,0.000732245746
-1.65,9.0000674e-06,0.000121042681,0.000299970063,0.000474562645,0.000621871281,0.000749226768
-1.7,9.0374707e-06,0.000121443785,0.000302075193,0.000482092763,0.000634287359,0.000765859624
-1.75,9.07456246e-06,0.000121832434,0.000303941308,0.000489234998,0.00064633664,0.000782145145
-1.8,9.11136016e-06,0.000122209659,0.000305615762,0.000495991189,0.000658020122,0.000798084163
-1.85,9.14788e-06,0.000122576363,0.000307139183,0.000502363438,0.00066933881,0.000813677511
-1.9,9.18413704e-06,0.000122933341,0.000308542996,0.00050835422,0.000680293723,0.000828926024
-1.95,9.22014528e-06,0.000123281297,0.000309850216,0.000513966565,0.000690885897,0.000843830538
-2.0,9.25591775e-06,0.000123620861,0.000311077498,0.000519204316,0.000701116388,0.000858391893
-2.05,9.29146664e-06,0.000123952599,0.000312237095,0.000524072527,0.000710986275,0.000872610932
-2.1,9.32680334e-06,0.000124277018,0.000313338279,0.000528578054,0.00072049667,0.000886488499
-2.15,9.36193851e-06,0.000124594579,0.000314388287,0.000532730387,0.000729648727,0.000900025444
-2.2,9.39688215e-06,0.0001249057,0.000315392923,0.000536542725,0.00073844365,0.000913222621
-2.25,9.43164365e-06,0.000125210762,0.000316356955,0.000540033103,0.000746882713,0.000926080889
-2.3,9.46623183e-06,0.000125510112,0.000317284371,0.000543225111,0.000754967279,0.000938601116
-2.35,9.500655e-06,0.000125804071,0.000318178559,0.000546147482,0.000762698832,0.000950784176
-2.4,9.53492099e-06,0.000126092931,0.000319042432,0.000548832139,0.000770079017,0.000962630951
-2.45,9.5690372e-06,0.000126376963,0.00031987852,0.000551311185,0.000777109699,0.000974142338
-2.5,9.60301061e-06,0.000126656415,0.000320689037,0.000553614138,0.000783793049,0.000985319247
-2.55,9.63684782e-06,0.000126931519,0.000321475938,0.000555766377,0.00079013166,0.000996162603
-2.6,9.67055511e-06,0.000127202488,0.000322240956,0.000557788891,0.000796128717,0.00100667335
-2.65,9.7041384e-06,0.000127469522,0.000322985638,0.000559698764,0.000801788244,0.00101685247
-2.7,9.73760336e-06,0.000127732805,0.000323711372,0.000561509909,0.000807115433,0.00102670096
-2.75,9.77095535e-06,0.000127992509,0.000324419406,0.000563233755,0.000812117093,0.00103621988
-2.8,9.80419952e-06,0.000128248796,0.000325110869,0.000564879795,0.000816802197,0.0010454103
-2.85,9.83734076e-06,0.000128501817,0.000325786784,0.000566456013,0.000821182458,0.0010542734
-2.9,9.87038382e-06,0.000128751712,0.000326448084,0.000567969195,0.000825272766,0.00106281041
-2.95,9.90333322e-06,0.000128998613,0.00032709562,0.000569425166,0.000829091233,0.00107102268
-3.0,9.93619337e-06,0.000129242645,0.000327730169,0.000570828969,0.000832658649,0.0010789117
-3.05,9.96896856e-06,0.000129483925,0.000328352447,0.000572185003,0.000835997356,0.00108647912
-3.1,1.0001663e-05,0.000129722563,0.000328963111,0.000573497128,0.000839129881,0.00109372686
-3.15,1.00342808e-05,0.000129958663,0.000329562768,0.000574768755,0.000842077729,0.00110065712
-3.2,1.00668261e-05,0.000130192322,0.000330151978,0.000576002913,0.000844860624,0.00110727254
-3.25,1.00993031e-05,0.000130423633,0.000330731259,0.000577202301,0.000847496166,0.00111357633
-3.3,1.0131716e-05,0.000130652683,0.000331301095,0.000578369339,0.000849999826,0.00111957243
-3.35,1.01640689e-05,0.000130879557,0.000331861933,0.000579506203,0.000852385091,0.00112526578
-3.4,1.01963666e-05,0.000131104332,0.000332414188,0.000580614859,0.000854663694,0.00113066258
-3.45,1.02286135e-05,0.000131327084,0.000332958252,0.000581697087,0.00085684584,0.00113577063
-3.5,1.02608146e-05,0.000131547884,0.000333494486,0.000582754504,0.000858940427,0.00114059959
-3.55,1.02929751e-05,0.0001317668,0.000334023231,0.000583788584,0.00086095524,0.00114516117
-3.6,1.03251008e-05,0.000131983898,0.000334544806,0.000584800676,0.000862897113,0.00114946915
-3.65,1.03571978e-05,0.00013219924,0.000335059509,0.000585792015,0.000864772067,0.00115353903
-3.7,1.03892726e-05,0.000132412887,0.000335567621,0.000586763735,0.000866585433,0.00115738754
-3.75,1.04213326e-05,0.000132624898,0.000336069408,0.000587716882,0.000868341945,0.00116103191
-3.8,1.04533857e-05,0.000132835329,0.000336565117,0.000588652418,0.000870045824,0.00116448921
-3.85,1.04854409e-05,0.000133044237,0.000337054984,0.000589571238,0.000871700848,0.00116777576
-3.9,1.05175078e-05,0.000133251677,0.000337539231,0.000590474165,0.000873310411,0.00117090684
-3.95,1.05495972e-05,0.000133457704,0.000338018067,0.000591361969,0.000874877571,0.00117389641
-4.0,1.0581721e-05,0.000133662373,0.000338491691,0.000592235361,0.000876405093,0.00117675711
-4.05,1.06138921e-05,0.00013386574,0.000338960292,0.000593095007,0.000877895483,0.00117950028
-4.1,1.06461252e-05,0.000134067863,0.000339424048,0.000593941527,0.000879351022,0.00118213607
-4.15,1.06784361e-05,0.000134268801,0.00033988313,0.0005947755,0.000880773789,0.00118467349
-4.2,1.07108424e-05,0.000134468615,0.000340337701,0.000595597468,0.000882165684,0.00118712062
-4.25,1.07433635e-05,0.000134667372,0.000340787916,0.000596407941,0.00088352845,0.00118948462
-4.3,1.07760203e-05,0.000134865141,0.000341233925,0.000597207395,0.000884863688,0.00119177191
-4.35,1.08088362e-05,0.000135061996,0.00034167587,0.000597996278,0.000886172871,0.00119398822
-4.4,1.08418364e-05,0.000135258019,0.000342113892,0.000598775014,0.000887457361,0.00119613872
-4.45,1.08750486e-05,0.000135453295,0.000342548124,0.000599543998,0.000888718413,0.00119822804
-4.5,1.09085029e-05,0.000135647921,0.000342978701,0.000600303607,0.000889957193,0.00120026034
-4.55,1.09422319e-05,0.000135842001,0.000343405751,0.000601054195,0.000891174783,0.00120223941
-4.6,1.09762709e-05,0.00013603565,0.000343829405,0.000601796096,0.000892372188,0.00120416868
-4.65,1.10106583e-05,0.000136228994,0.000344249792,0.00060252963,0.000893550343,0.00120605126
-4.7,1.10454353e-05,0.00013642217,0.000344667045,0.000603255096,0.000894710123,0.00120788999
-4.75,1.10806465e-05,0.000136615333,0.000345081297,0.000603972781,0.000895852342,0.00120968746
-4.8,1.11163396e-05,0.000136808649,0.000345492688,0.000604682958,0.000896977765,0.00121144604
-4.85,1.1152566e-05,0.000137002304,0.000345901363,0.000605385887,0.000898087107,0.00121316791
-4.9,1.11893807e-05,0.000137196501,0.000346307474,0.000606081818,0.000899181038,0.00121485508
-4.95,1.12268422e-05,0.000137391461,0.000346711186,0.00060677099,0.000900260189,0.0012165094
-5.0,1.12650132e-05,0.000137587429,0.000347112672,0.000607453635,0.000901325154,0.00121813256
-5.05,1.13039604e-05,0.000137784672,0.00034751212,0.000608129975,0.00090237649,0.00121972615
-5.1,1.13437548e-05,0.00013798348,0.000347909737,0.000608800231,0.000903414725,0.00122129164
-5.15,1.13844714e-05,0.00013818417,0.000348305747,0.000609464615,0.000904440357,0.00122283037
-5.2,1.14261899e-05,0.000138387088,0.000348700394,0.000610123341,0.000905453855,0.00122434361
-5.25,1.14689947e-05,0.000138592607,0.000349093949,0.000610776619,0.000906455666,0.00122583255
-5.3,1.15129747e-05,0.00013880113,0.000349486709,0.000611424665,0.000907446211,0.00122729827
-5.35,1.15582238e-05,0.000139013097,0.000349879002,0.000612067694,0.000908425892,0.00122874181
-5.4,1.16048408e-05,0.000139228977,0.000350271189,0.000612705931,0.000909395092,0.00123016413
-5.45,1.16529296e-05,0.000139449279,0.00035066367,0.000613339607,0.000910354175,0.00123156613
-5.5,1.17025992e-05,0.000139674545,0.000351056882,0.000613968968,0.000911303489,0.00123294865
-5.55,1.1753964e-05,0.00013990536,0.000351451309,0.000614594272,0.000912243371,0.00123431249
-5.6,1.18071438e-05,0.000140142348,0.000351847482,0.000615215796,0.000913174143,0.0012356584
-5.65,1.18622637e-05,0.000140386172,0.000352245983,0.00061583384,0.000914096119,0.00123698708
-5.7,1.19194547e-05,0.000140637544,0.000352647451,0.000616448729,0.000915009603,0.00123829919
-5.75,1.19788531e-05,0.000140897217,0.000353052581,0.000617060818,0.000915914896,0.00123959537
-5.8,1.20406011e-05,0.00014116599,0.000353462135,0.000617670495,0.000916812294,0.00124087621
-5.85,1.21048468e-05,0.000141444713,0.000353876939,0.000618278189,0.000917702091,0.00124214226
-5.9,1.21717442e-05,0.000141734281,0.000354297895,0.000618884372,0.000918584587,0.00124339407
-5.95,1.22414529e-05,0.000142035642,0.000354725974,0.000619489566,0.000919460086,0.00124463213
-6.0,1.23141388e-05,0.000142349795,0.000355162232,0.000620094345,0.000920328898,0.00124585694
-6.05,1.23899739e-05,0.00014267779,0.000355607806,0.000620699347,0.00092119135,0.00124706895
-6.1,1.24691362e-05,0.000143020731,0.00035606392,0.000621305273,0.000922047783,0.00124826861
-6.15,1.25518096e-05,0.000143379778,0.000356531889,0.000621912899,0.00092289856,0.00124945633
-6.2,1.26381847e-05,0.000143756144,0.000357013126,0.000622523076,0.000923744071,0.00125063254
-6.25,1.27284578e-05,0.000144151102,0.000357509139,0.000623136743,0.000924584737,0.00125179762
-6.3,1.28228316e-05,0.000144565977,0.000358021542,0.000623754931,0.000925421014,0.00125295197
-6.35,1.29215153e-05,0.000145002157,0.000358552054,0.000624378765,0.000926253403,0.00125409597
-6.4,1.30247241e-05,0.000145461085,0.000359102503,0.000625009481,0.000927082455,0.00125523
-6.45,1.31326794e-05,0.000145944264,0.000359674832,0.000625648422,0.000927908776,0.00125635443
-6.5,1.32456091e-05,0.000146453257,0.0003602711,0.000626297054,0.000928733035,0.00125746965
-6.55,1.33637473e-05,0.000146989685,0.000360893484,0.000626956965,0.000929555973,0.00125857606
-6.6,1.34873344e-05,0.000147555232,0.000361544285,0.000627629879,0.000930378409,0.00125967406
