vds,vb1,vb2,vb3,vb4,vb5,vb6
0.0,-4.01677736e-27,-4.3279041e-25,-5.02695339e-22,3.565646e-20,5.78655962e-26,4.8851636e-20
-0.05,5.52469309e-07,2.03447181e-06,3.18612214e-06,4.12942783e-06,4.92841891e-06,5.62324723e-06
-0.1,1.00376582e-06,3.96556175e-06,6.27610783e-06,8.16940239e-06,9.77308361e-06,1.11675713e-05
-0.15,1.36166802e-06,5.80007783e-06,9.27646167e-06,1.21262015e-05,1.45400897e-05,1.66389155e-05
-0.2,1.62955833e-06,7.53989297e-06,1.21889539e-05,1.60015311e-05,1.92310967e-05,2.20389031e-05
-0.25,1.81203035e-06,9.18568531e-06,1.50141828e-05,1.9795946e-05,2.38466306e-05,2.73680403e-05
-0.3,1.92021039e-06,1.07378469e-05,1.77524573e-05,2.35097115e-05,2.83869287e-05,3.26265443e-05
-0.35,1.97681997e-06,1.21967048e-05,2.04040153e-05,2.71430206e-05,3.28521545e-05,3.78145581e-05
-0.4,2.00800771e-06,1.35625766e-05,2.29690779e-05,3.06960483e-05,3.72424531e-05,4.29322057e-05
-0.45,2.02931929e-06,1.48357864e-05,2.54478625e-05,3.41689653e-05,4.15579649e-05,4.79796062e-05
-0.5,2.04671638e-06,1.60166727e-05,2.78405864e-05,3.75619416e-05,4.57988295e-05,5.29568776e-05
-0.55,2.06225828e-06,1.71055978e-05,3.01474676e-05,4.08751471e-05,4.9965186e-05,5.78641375e-05
-0.6,2.07672588e-06,1.81029604e-05,3.23687253e-05,4.41087519e-05,5.40571739e-05,6.27015037e-05
-0.65,2.09046306e-06,1.90092187e-05,3.45045801e-05,4.72629265e-05,5.80749328e-05,6.74690941e-05
-0.7,2.10364576e-06,1.98249294e-05,3.65552544e-05,5.03378419e-05,6.20186024e-05,7.21670267e-05
-0.75,2.11637682e-06,2.05508181e-05,3.85209731e-05,5.33336694e-05,6.58883227e-05,7.67954195e-05
-0.8,2.12872339e-06,2.1187911e-05,4.04019638e-05,5.62505806e-05,6.96842336e-05,8.13543908e-05
-0.85,2.14073329e-06,2.17377827e-05,4.2198458e-05,5.90887479e-05,7.34064756e-05,8.58440588e-05
-0.9,2.15244294e-06,2.22030214e-05,4.39106921e-05,6.18483441e-05,7.70551893e-05,9.0264542e-05
-0.95,2.16388135e-06,2.25880432e-05,4.55389088e-05,6.45295428e-05,8.06305152e-05,9.46159588e-05
-1.0,2.17507253e-06,2.2900254e-05,4.70833597e-05,6.71325183e-05,8.41325945e-05,9.88984281e-05
-1.05,2.18603682e-06,2.31509435e-05,4.85443081e-05,6.96574457e-05,8.75615685e-05,0.000103112069
-1.1,2.19679178e-06,2.33544519e-05,4.99220337e-05,7.21045014e-05,9.09175786e-05,0.000107256999
-1.15,2.20735279e-06,2.35250701e-05,5.12168398e-05,7.44738629e-05,9.42007667e-05,0.000111333339
-1.2,2.21773347e-06,2.36739687e-05,5.24290627e-05,7.67657092e-05,9.74112751e-05,0.000115341207
-1.25,2.22794598e-06,2.38084258e-05,5.35590884e-05,7.89802212e-05,0.000100549246,0.000119280723
-1.3,2.23800123e-06,2.39327646e-05,5.46073766e-05,8.1117582e-05,0.000103614823,0.000123152006
-1.35,2.24790912e-06,2.40495212e-05,5.55745004e-05,8.31779773e-05,0.000106608149,0.000126955176
-1.4,2.25767861e-06,2.41602433e-05,5.64612102e-05,8.51615966e-05,0.000109529368,0.000130690352
-1.45,2.26731789e-06,2.42659372e-05,5.72685383e-05,8.70686334e-05,0.000112378625,0.000134357656
-1.5,2.27683446e-06,2.43673031e-05,5.79979692e-05,8.88992869e-05,0.000115156065,0.000137957207
-1.55,2.28623519e-06,2.44648584e-05,5.86517084e-05,9.06537632e-05,0.000117861834,0.000141489126
-1.6,2.29552642e-06,2.45590055e-05,5.92330745e-05,9.23322779e-05,0.000120496079,0.000144953533
-1.65,2.30471401e-06,2.46500694e-05,5.97469784e-05,9.39350588e-05,0.000123058948,0.000148350549
-1.7,2.31380337e-06,2.47383205e-05,6.02002881e-05,9.546235e-05,0.000125550591,0.000151680297
-1.75,2.32279952e-06,2.48239886e-05,6.06016892e-05,9.6914418e-05,0.000127971157,0.000154942897
-1.8,2.33170714e-06,2.49072727e-05,6.09607495e-05,9.82915599e-05,0.0001303208,0.000158138472
-1.85,2.34053058e-06,2.49883467e-05,6.12865094e-05,9.95941157e-05,0.000132599674,0.000161267144
-1.9,2.34927388e-06,2.50673648e-05,6.15864029e-05,0.000100822487,0.000134807937,0.000164329037
-1.95,2.35794084e-06,2.51444643e-05,6.18659655e-05,0.000101977161,0.000136945749,0.000167324273
-2.0,2.36653502e-06,2.52197684e-05,6.21291185e-05,0.000103058758,0.000139013274,0.000170252977
-2.05,2.37505973e-06,2.52933886e-05,6.23786219e-05,0.000104068083,0.000141010681,0.000173115274
-2.1,2.38351809e-06,2.53654258e-05,6.26164617e-05,0.000105006225,0.000142938145,0.000175911289
-2.15,2.39191305e-06,2.54359718e-05,6.2844119e-05,0.000105874688,0.000144795849,0.00017864115
-2.2,2.40024735e-06,2.55051106e-05,6.30627408e-05,0.000106675577,0.000146583986,0.000181304983
-2.25,2.40852361e-06,2.55729193e-05,6.32732461e-05,0.000107411827,0.000148302759,0.000183902918
-2.3,2.41674427e-06,2.56394686e-05,6.34763923e-05,0.000108087424,0.000149952392,0.000186435085
-2.35,2.42491165e-06,2.57048238e-05,6.36728179e-05,0.000108707507,0.000151533126,0.000188901616
-2.4,2.43302796e-06,2.57690452e-05,6.38630706e-05,0.000109278189,0.000153045233,0.000191302645
-2.45,2.44109525e-06,2.58321887e-05,6.40476264e-05,0.000109806056,0.000154489025,0.000193638309
-2.5,2.44911549e-06,2.58943062e-05,6.42269037e-05,0.000110297493,0.000155864866,0.000195908748
-2.55,2.45709055e-06,2.59554458e-05,6.44012735e-05,0.000110758131,0.000157173192,0.000198114103
-2.6,2.46502221e-06,2.60156525e-05,6.45710668e-05,0.000111192611,0.000158414546,0.000200254524
-2.65,2.47291213e-06,2.60749682e-05,6.47365812e-05,0.000111604615,0.000159589611,0.000202330161
-2.7,2.48076194e-06,2.6133432e-05,6.48980851e-05,0.000111997036,0.000160699275,0.000204341175
-2.75,2.48857314e-06,2.61910808e-05,6.50558218e-05,0.00011237217,0.000161744705,0.000206287732
-2.8,2.49634721e-06,2.62479488e-05,6.52100128e-05,0.000112731865,0.000162727456,0.00020817001
-2.85,2.50408554e-06,2.63040684e-05,6.53608605e-05,0.000113077647,0.00016364959,0.000209988198
-2.9,2.51178946e-06,2.63594699e-05,6.550855e-05,0.000113410794,0.000164513797,0.000211742504
-2.95,2.51946027e-06,2.64141819e-05,6.56532516e-05,0.000113732397,0.000165323465,0.000213433154
-3.0,2.52709921e-06,2.64682314e-05,6.5795122e-05,0.000114043397,0.000166082638,0.000215060404
-3.05,2.53470748e-06,2.65216437e-05,6.5934306e-05,0.00011434462,0.000166795833,0.000216624546
-3.1,2.54228625e-06,2.65744429e-05,6.60709375e-05,0.00011463679,0.000167467721,0.000218125917
-3.15,2.54983666e-06,2.66266518e-05,6.62051407e-05,0.000114920554,0.000168102806,0.000219564922
-3.2,2.55735985e-06,2.66782917e-05,6.63370308e-05,0.000115196487,0.00016870518,0.000220942047
-3.25,2.56485693e-06,2.67293831e-05,6.64667153e-05,0.000115465107,0.000169278421,0.000222257895
-3.3,2.57232901e-06,2.67799454e-05,6.65942942e-05,0.000115726882,0.000169825593,0.000223513222
-3.35,2.57977723e-06,2.68299968e-05,6.67198611e-05,0.000115982235,0.000170349304,0.000224708986
-3.4,2.58720272e-06,2.68795549e-05,6.68435033e-05,0.00011623155,0.000170851778,0.00022584641
-3.45,2.59460667e-06,2.69286363e-05,6.69653028e-05,0.00011647518,0.000171334932,0.000226927046
-3.5,2.60199028e-06,2.69772569e-05,6.70853364e-05,0.000116713445,0.000171800422,0.00022795284
-3.55,2.60935484e-06,2.70254318e-05,6.72036763e-05,0.000116946641,0.000172249698,0.000228926165
-3.6,2.6167017e-06,2.70731757e-05,6.73203904e-05,0.000117175039,0.000172684036,0.00022984981
-3.65,2.62403229e-06,2.71205023e-05,6.74355426e-05,0.000117398889,0.000173104564,0.000230726897
-3.7,2.63134815e-06,2.71674252e-05,6.75491932e-05,0.000117618421,0.000173512289,0.000231560746
-3.75,2.63865095e-06,2.72139573e-05,6.7661399e-05,0.000117833851,0.00017390811,0.000232354718
-3.8,2.6459425e-06,2.72601111e-05,6.77722139e-05,0.000118045377,0.000174292836,0.000233112072
-3.85,2.65322477e-06,2.73058989e-05,6.78816887e-05,0.000118253183,0.000174667195,0.000233835869
-3.9,2.66049991e-06,2.73513327e-05,6.79898716e-05,0.000118457441,0.00017503185,0.000234528925
-3.95,2.6677703e-06,2.73964243e-05,6.80968083e-05,0.000118658312,0.000175387398,0.000235193799
-4.0,2.67503854e-06,2.74411855e-05,6.82025421e-05,0.000118855946,0.000175734387,0.000235832796
-4.05,2.68230748e-06,2.7485628e-05,6.83071143e-05,0.000119050482,0.000176073316,0.00023644799
-4.1,2.68958029e-06,2.75297636e-05,6.84105641e-05,0.000119242053,0.000176404641,0.000237041241
-4.15,2.69686043e-06,2.75736046e-05,6.85129288e-05,0.00011943078,0.000176728783,0.000237614222
-4.2,2.70415171e-06,2.76171633e-05,6.86142443e-05,0.000119616781,0.000177046128,0.000238168436
-4.25,2.7114583e-06,2.76604526e-05,6.87145445e-05,0.000119800164,0.000177357031,0.000238705234
-4.3,2.71878481e-06,2.77034862e-05,6.88138622e-05,0.000119981031,0.000177661823,0.000239225838
-4.35,2.72613626e-06,2.77462784e-05,6.89122289e-05,0.00012015948,0.000177960807,0.000239731349
-4.4,2.73351815e-06,2.77888443e-05,6.90096749e-05,0.000120335601,0.000178254268,0.000240222768
-4.45,2.74093649e-06,2.78312005e-05,6.91062296e-05,0.000120509482,0.000178542467,0.000240701001
-4.5,2.7483978e-06,2.78733647e-05,6.92019216e-05,0.000120681203,0.00017882565,0.000241166874
-4.55,2.75590921e-06,2.7915356e-05,6.92967787e-05,0.000120850842,0.000179104045,0.000241621139
-4.6,2.76347843e-06,2.79571953e-05,6.93908286e-05,0.000121018473,0.000179377864,0.000242064483
-4.65,2.77111382e-06,2.79989056e-05,6.94840985e-05,0.000121184165,0.000179647308,0.000242497537
-4.7,2.77882442e-06,2.8040512e-05,6.95766155e-05,0.000121347984,0.000179912564,0.00024292088
-4.75,2.78661998e-06,2.80820419e-05,6.96684072e-05,0.000121509994,0.000180173805,0.000243335043
-4.8,2.79451099e-06,2.81235254e-05,6.97595016e-05,0.000121670254,0.000180431198,0.000243740518
-4.85,2.80250873e-06,2.81649959e-05,6.98499272e-05,0.000121828822,0.000180684897,0.000244137755
-4.9,2.8106253e-06,2.82064895e-05,6.9939714e-05,0.000121985753,0.000180935047,0.000244527176
-4.95,2.81887365e-06,2.82480463e-05,7.00288931e-05,0.000122141099,0.000181181786,0.000244909168
-5.0,2.82726761e-06,2.82897099e-05,7.01174973e-05,0.000122294911,0.000181425243,0.000245284092
-5.05,2.83582195e-06,2.83315283e-05,7.0205562e-05,0.000122447238,0.000181665541,0.000245652283
-5.1,2.84455237e-06,2.83735535e-05,7.02931246e-05,0.000122598128,0.000181902797,0.000246014053
-5.15,2.85347558e-06,2.84158427e-05,7.03802261e-05,0.000122747626,0.000182137118,0.000246369695
-5.2,2.8626093e-06,2.84584579e-05,7.04669105e-05,0.000122895779,0.00018236861,0.000246719481
-5.25,2.87197228e-06,2.85014666e-05,7.05532261e-05,0.00012304263,0.000182597372,0.000247063665
-5.3,2.88158439e-06,2.85449419e-05,7.06392258e-05,0.000123188224,0.000182823496,0.000247402486
-5.35,2.89146659e-06,2.8588963e-05,7.07249674e-05,0.000123332605,0.000183047072,0.000247736168
-5.4,2.90164097e-06,2.86336153e-05,7.08105146e-05,0.000123475819,0.000183268186,0.000248064923
-5.45,2.9121308e-06,2.86789913e-05,7.08959374e-05,0.000123617912,0.000183486917,0.000248388947
-5.5,2.92296054e-06,2.87251899e-05,7.09813126e-05,0.000123758931,0.000183703344,0.000248708427
-5.55,2.93415588e-06,2.87723179e-05,7.10667251e-05,0.000123898926,0.000183917542,0.00024902354
-5.6,2.94574373e-06,2.88204894e-05,7.11522677e-05,0.000124037949,0.000184129581,0.000249334451
-5.65,2.95775229e-06,2.88698265e-05,7.12380424e-05,0.000124176055,0.00018433953,0.000249641316
-5.7,2.97021103e-06,2.89204596e-05,7.13241611e-05,0.000124313303,0.000184547456,0.000249944284
-5.75,2.98315073e-06,2.89725278e-05,7.14107462e-05,0.000124449758,0.000184753425,0.000250243496
-5.8,2.99660351e-06,2.90261787e-05,7.14979313e-05,0.000124585488,0.000184957499,0.000250539085
-5.85,3.01060284e-06,2.90815694e-05,7.15858623e-05,0.00012472057,0.000185159741,0.000250831176
-5.9,3.02518352e-06,2.91388663e-05,7.16746978e-05,0.000124855086,0.000185360213,0.00025111989
-5.95,3.04038177e-06,2.91982453e-05,7.17646101e-05,0.000124989126,0.000185558977,0.000251405342
-6.0,3.05623518e-06,2.92598925e-05,7.18557859e-05,0.000125122791,0.000185756097,0.000251687639
-6.05,3.07278273e-06,2.9324004e-05,7.19484273e-05,0.00012525619,0.000185951636,0.000251966886
-6.1,3.09006485e-06,2.93907863e-05,7.20427521e-05,0.000125389445,0.00018614566,0.000252243183
-6.15,3.10812339e-06,2.94604567e-05,7.21389954e-05,0.000125522689,0.000186338238,0.000252516623
-6.2,3.1270016e-06,2.95332432e-05,7.22374095e-05,0.000125656069,0.000186529442,0.000252787299
-6.25,3.14674422e-06,2.96093847e-05,7.23382652e-05,0.000125789747,0.000186719349,0.000253055299
-6.3,3.16739741e-06,2.96891316e-05,7.24418525e-05,0.0001259239,0.000186908041,0.000253320709
-6.35,3.18900878e-06,2.97727454e-05,7.25484811e-05,0.000126058723,0.000187095606,0.000253583611
-6.4,3.21162743e-06,2.98604993e-05,7.26584814e-05,0.000126194429,0.000187282141,0.000253844087
-6.45,3.23530389e-06,2.99526781e-05,7.27722052e-05,0.000126331251,0.00018746775,0.000254102217
-6.5,3.26009016e-06,3.00495783e-05,7.2890026e-05,0.000126469445,0.000187652548,0.000254358081
-6.55,3.2860397e-06,3.01515083e-05,7.30123402e-05,0.000126609286,0.000187836662,0.000254611758
-6.6,3.31320742e-06,3.02587885e-05,7.31395672e-05,0.000126751076,0.00018802023,0.00025486333
