vds,vb1,vb2,vb3,vb4,vb5,vb6
0.0,-6.0302573800000004e-27,-8.67496587e-25,-6.700619269999999e-24,2.82761675e-24,-1.4589161699999999e-24,5.2229230299999994e-24
-0.05,2.39523154e-06,1.09488663e-05,1.77340972e-05,2.33793353e-05,2.82424873e-05,3.25525744e-05
-0.1,4.17551674e-06,2.12468957e-05,3.48609407e-05,4.61908905e-05,5.59500385e-05,6.45973609e-05
-0.15,5.42037299e-06,3.09623177e-05,5.14472576e-05,6.8500226e-05,8.3187237e-05,9.61980931e-05
-0.2,6.17783193e-06,4.0112148e-05,6.75097028e-05,9.0323781e-05,0.000109970359,0.000127370913
-0.25,6.54551079e-06,4.87012412e-05,8.3052885e-05,0.000111666062,0.000136303845,0.000158120219
-0.3,6.69331914e-06,5.67315896e-05,9.80785198e-05,0.000132528679,0.000162189243,0.000188447511
-0.35,6.75876086e-06,6.42045448e-05,0.00011258763,0.000152912541,0.000187627391,0.00021835358
-0.4,6.79726483e-06,7.11213635e-05,0.000126581075,0.000172818389,0.000212618954,0.000247839038
-0.45,6.82558409e-06,7.74833678e-05,0.000140059677,0.000192246919,0.000237164555,0.000276904455
-0.5,6.8491021e-06,8.32920325e-05,0.000153024254,0.000211198822,0.000261264805,0.000305550388
-0.55,6.86986903e-06,8.85490909e-05,0.000165475626,0.000229674783,0.000284920315,0.000333777393
-0.6,6.88880965e-06,9.32567104e-05,0.000177414623,0.000247675491,0.000308131694,0.000361586024
-0.65,6.90640663e-06,9.7417808e-05,0.00018884208,0.000265201633,0.00033089955,0.000388976836
-0.7,6.92294421e-06,0.000101036644,0.000199758848,0.000282253898,0.000353224492,0.000415950382
-0.75,6.93860686e-06,0.00010411997,0.00021016579,0.000298832977,0.000375107129,0.000442507216
-0.8,6.9535238e-06,0.00010667928,0.000220063794,0.000314939561,0.000396548069,0.00046864789
-0.85,6.96779103e-06,0.000108735076,0.000229453772,0.000330574345,0.000417547921,0.000494372957
-0.9,6.98148313e-06,0.000110324015,0.000238336676,0.000345738025,0.000438107295,0.00051968297
-0.95,6.99466007e-06,0.000111507227,0.000246713508,0.0003604313,0.000458226799,0.000544578482
-1.0,7.00737131e-06,0.000112371322,0.00025458534,0.000374654874,0.000477907044,0.000569060044
-1.05,7.01965852e-06,0.000113012347,0.000261953347,0.000388409454,0.000497148639,0.000593128208
-1.1,7.03155732e-06,0.000113511445,0.000268818846,0.000401695754,0.000515952196,0.000616783527
-1.15,7.04309856e-06,0.000113923257,0.000275183365,0.000414514494,0.000534318327,0.000640026552
-1.2,7.05430925e-06,0.000114279907,0.000281048747,0.000426866403,0.000552247644,0.000662857836
-1.25,7.06521322e-06,0.000114599459,0.000286417315,0.000438752219,0.00056974076,0.000685277929
-1.3,7.07583168e-06,0.000114892264,0.000291292146,0.000450172696,0.000586798291,0.000707287384
-1.35,7.08618358e-06,0.000115164566,0.000295677512,0.000461128604,0.000603420855,0.000728886754
-1.4,7.09628596e-06,0.000115420374,0.000299579625,0.000471620735,0.000619609069,0.000750076589
-1.45,7.10615424e-06,0.00011566243,0.000303007867,0.000481649907,0.000635363556,0.000770857443
-1.5,7.11580239e-06,0.000115892714,0.000305976754,0.000491216977,0.000650684939,0.000791229868
-1.55,7.12524313e-06,0.000116112722,0.000308508816,0.000500322849,0.000665573847,0.000811194418
-1.6,7.1344881e-06,0.00011632363,0.000310638018,0.000508968491,0.000680030911,0.000830751647
-1.65,7.14354796e-06,0.000116526386,0.000312412082,0.000517154954,0.000694056768,0.000849902108
-1.7,7.1524325e-06,0.000116721778,0.000313890684,0.000524883408,0.000707652063,0.000868646357
-1.75,7.16115075e-06,0.000116910468,0.000315137919,0.000532155185,0.000720817445,0.000886984951
-1.8,7.16971106e-06,0.000117093024,0.000316212283,0.000538971842,0.000733553575,0.000904918448
-1.85,7.17812115e-06,0.000117269936,0.000317160061,0.000545335261,0.000745861123,0.000922447404
-1.9,7.18638817e-06,0.000117441635,0.0003180144,0.000551247789,0.000757740775,0.000939572383
-1.95,7.19451881e-06,0.0001176085,0.000318797866,0.000556712463,0.000769193231,0.000956293945
-2.0,7.20251925e-06,0.000117770869,0.000319525679,0.000561733344,0.000780219216,0.000972612657
-2.05,7.21039529e-06,0.000117929041,0.000320208296,0.000566316027,0.000790819479,0.000988529084
-2.1,7.21815233e-06,0.000118083289,0.000320853135,0.00057046842,0.000800994802,0.0010040438
-2.15,7.22579545e-06,0.000118233856,0.000321465659,0.000574201866,0.000810746014,0.00101915738
-2.2,7.23332938e-06,0.000118380964,0.000322050034,0.000577532664,0.000820073994,0.0010338704
-2.25,7.24075859e-06,0.000118524815,0.000322609541,0.000580483824,0.000828979698,0.00104818344
-2.3,7.24808726e-06,0.000118665593,0.000323146831,0.000583086479,0.000837464175,0.00106209711
-2.35,7.25531935e-06,0.000118803466,0.000323664096,0.000585379893,0.000845528599,0.00107561199
-2.4,7.26245856e-06,0.00011893859,0.000324163181,0.000587409039,0.000853174317,0.0010887287
-2.45,7.26950841e-06,0.000119071107,0.000324645659,0.000589219983,0.000860402905,0.00110144785
-2.5,7.27647222e-06,0.000119201148,0.00032511289,0.000590854928,0.000867216256,0.00111377009
-2.55,7.28335314e-06,0.000119328837,0.000325566063,0.000592349057,0.000873616711,0.00112569605
-2.6,7.29015414e-06,0.000119454285,0.000326006221,0.000593729824,0.000879607229,0.00113722641
-2.65,7.29687806e-06,0.000119577599,0.000326434293,0.000595017911,0.00088519166,0.00114836187
-2.7,7.3035276e-06,0.000119698874,0.000326851104,0.000596228757,0.000890375111,0.00115910315
-2.75,7.31010535e-06,0.000119818204,0.000327257396,0.000597373987,0.00089516448,0.00116945102
-2.8,7.31661377e-06,0.000119935672,0.000327653838,0.000598462522,0.000899569179,0.00117940629
-2.85,7.32305525e-06,0.000120051359,0.000328041033,0.000599501363,0.000903602044,0.00118896983
-2.9,7.32943209e-06,0.000120165339,0.000328419531,0.000600496131,0.000907280343,0.00119814261
-2.95,7.33574654e-06,0.000120277682,0.000328789834,0.000601451429,0.000910626611,0.00120692567
-3.0,7.34200078e-06,0.000120388454,0.000329152399,0.0006023711,0.000913668825,0.00121532021
-3.05,7.34819698e-06,0.000120497718,0.000329507647,0.000603258394,0.00091643945,0.0012233276
-3.1,7.35433732e-06,0.00012060553,0.000329855963,0.000604116102,0.00091897322,0.00123094941
-3.15,7.36042394e-06,0.000120711947,0.000330197705,0.000604946643,0.00092130428,0.00123818756
-3.2,7.36645908e-06,0.000120817021,0.000330533202,0.000605752131,0.000923463679,0.00124504438
-3.25,7.37244499e-06,0.0001209208,0.000330862758,0.000606534433,0.000925477963,0.00125152274
-3.3,7.37838405e-06,0.000121023331,0.000331186657,0.000607295205,0.000927368918,0.00125762631
-3.35,7.38427873e-06,0.00012112466,0.000331505161,0.000608035924,0.000929154054,0.00126335982
-3.4,7.39013169e-06,0.000121224827,0.000331818517,0.000608757918,0.000930847382,0.00126872943
-3.45,7.39594574e-06,0.000121323874,0.000332126952,0.000609462382,0.000932460172,0.00127374324
-3.5,7.40172397e-06,0.000121421839,0.00033243068,0.000610150399,0.000934001604,0.00127841185
-3.55,7.40746972e-06,0.000121518759,0.000332729903,0.000610822953,0.000935479249,0.00128274899
-3.6,7.41318663e-06,0.00012161467,0.000333024806,0.000611480939,0.000936899446,0.00128677199
-3.65,7.41887876e-06,0.000121709607,0.000333315567,0.000612125177,0.000938267567,0.00129050195
-3.7,7.42455055e-06,0.000121803603,0.000333602351,0.00061275642,0.000939588216,0.0012939632
-3.75,7.43020694e-06,0.000121896693,0.000333885314,0.000613375359,0.000940865382,0.00129718216
-3.8,7.4358534e-06,0.00012198891,0.000334164604,0.000613982631,0.000942102546,0.00130018571
-3.85,7.441496e-06,0.000122080287,0.000334440357,0.000614578824,0.000943302773,0.00130299957
-3.9,7.44714146e-06,0.000122170858,0.000334712707,0.000615164483,0.000944468777,0.00130564705
-3.95,7.45279725e-06,0.000122260659,0.000334981777,0.000615740115,0.000945602977,0.00130814854
-4.0,7.45847164e-06,0.000122349725,0.000335247685,0.000616306188,0.000946707537,0.00131052143
-4.05,7.46417373e-06,0.000122438096,0.000335510543,0.000616863142,0.000947784405,0.00131278039
-4.1,7.46991362e-06,0.000122525811,0.000335770458,0.000617411383,0.00094883534,0.00131493781
-4.15,7.4757024e-06,0.000122612914,0.000336027531,0.000617951293,0.000949861937,0.00131700411
-4.2,7.48155226e-06,0.000122699452,0.000336281861,0.000618483229,0.000950865646,0.0013189882
-4.25,7.48747657e-06,0.000122785476,0.000336533541,0.000619007525,0.000951847791,0.00132089769
-4.3,7.49348995e-06,0.000122871044,0.000336782662,0.000619524496,0.000952809583,0.00132273917
-4.35,7.49960839e-06,0.000122956217,0.000337029314,0.000620034436,0.000953752135,0.00132451838
-4.4,7.50584927e-06,0.000123041064,0.000337273582,0.000620537623,0.00095467647,0.00132624035
-4.45,7.51223147e-06,0.000123125661,0.000337515553,0.000621034318,0.00095558353,0.0013279095
-4.5,7.51877547e-06,0.000123210095,0.000337755312,0.000621524769,0.000956474187,0.00132952978
-4.55,7.52550343e-06,0.000123294458,0.000337992945,0.000622009208,0.000957349249,0.00133110468
-4.6,7.53243922e-06,0.000123378856,0.000338228541,0.000622487856,0.000958209466,0.00133263735
-4.65,7.53960857e-06,0.000123463407,0.000338462191,0.000622960922,0.000959055532,0.00133413061
-4.7,7.54703912e-06,0.000123548238,0.000338693988,0.000623428606,0.000959888098,0.00133558702
-4.75,7.55476048e-06,0.000123633494,0.000338924034,0.000623891095,0.000960707768,0.00133700888
-4.8,7.56280434e-06,0.000123719333,0.000339152436,0.000624348571,0.000961515108,0.00133839828
-4.85,7.57120451e-06,0.00012380593,0.000339379308,0.000624801206,0.000962310646,0.00133975716
-4.9,7.57999705e-06,0.000123893478,0.000339604777,0.000625249166,0.00096309488,0.00134108725
-4.95,7.58922027e-06,0.000123982189,0.00033982898,0.000625692612,0.000963868273,0.00134239017
-5.0,7.59891485e-06,0.000124072294,0.000340052067,0.000626131697,0.000964631264,0.00134366737
-5.05,7.6091239e-06,0.000124164048,0.000340274208,0.000626566575,0.000965384264,0.00134492024
-5.1,7.61989299e-06,0.000124257728,0.000340495588,0.000626997396,0.000966127661,0.00134615
-5.15,7.63127026e-06,0.000124353634,0.000340716414,0.000627424307,0.000966861821,0.00134735784
-5.2,7.64330644e-06,0.000124452094,0.000340936917,0.000627847458,0.000967587089,0.00134854482
-5.25,7.65605491e-06,0.000124553463,0.000341157354,0.000628267001,0.000968303792,0.00134971193
-5.3,7.66957178e-06,0.000124658123,0.000341378011,0.000628683092,0.000969012241,0.00135086012
-5.35,7.6839159e-06,0.000124766487,0.000341599207,0.000629095892,0.00096971273,0.00135199023
-5.4,7.69914892e-06,0.000124878999,0.000341821295,0.000629505573,0.000970405538,0.00135310309
-5.45,7.71533536e-06,0.000124996135,0.000342044667,0.000629912316,0.000971090932,0.00135419945
-5.5,7.73254258e-06,0.000125118407,0.000342269759,0.000630316316,0.000971769169,0.00135528
-5.55,7.75084089e-06,0.000125246359,0.000342497048,0.000630717786,0.000972440492,0.00135634542
-5.6,7.77030352e-06,0.000125380575,0.000342727065,0.000631116957,0.000973105138,0.00135739633
-5.65,7.79100669e-06,0.000125521672,0.00034296039,0.000631514087,0.000973763336,0.00135843331
-5.7,7.81302959e-06,0.000125670311,0.00034319766,0.000631909457,0.000974415311,0.00135945691
-5.75,7.83645444e-06,0.000125827188,0.000343439572,0.000632303383,0.00097506128,0.00136046765
-5.8,7.8613665e-06,0.000125993044,0.000343686887,0.000632696215,0.000975701463,0.00136146601
-5.85,7.88785404e-06,0.000126168659,0.000343940433,0.000633088345,0.000976336079,0.00136245247
-5.9,7.91600841e-06,0.000126354857,0.00034420111,0.000633480208,0.000976965348,0.00136342746
-5.95,7.94592398e-06,0.000126552506,0.000344469891,0.000633872291,0.000977589497,0.0013643914
-6.0,7.97769822e-06,0.000126762519,0.00034474783,0.000634265138,0.000978208763,0.00136534467
-6.05,8.01143161e-06,0.000126985855,0.000345036061,0.000634659351,0.000978823392,0.00136628765
-6.1,8.0472277e-06,0.000127223517,0.000345335807,0.000635055604,0.00097943365,0.0013672207
-6.15,8.08519307e-06,0.000127476557,0.000345648377,0.00063545464,0.000980039818,0.00136814416
-6.2,8.12543734e-06,0.000127746074,0.000345975177,0.000635857285,0.000980642205,0.00136905837
-6.25,8.16807312e-06,0.000128033216,0.000346317706,0.000636264449,0.000981241147,0.00136996362
-6.3,8.21321603e-06,0.000128339179,0.000346677567,0.000636677136,0.000981837014,0.00137086024
-6.35,8.26098465e-06,0.000128665208,0.000347056463,0.000637096447,0.000982430218,0.00137174851
-6.4,8.31150051e-06,0.000129012596,0.000347456206,0.000637523593,0.000983021216,0.00137262874
-6.45,8.36488807e-06,0.00012938269,0.000347878715,0.000637959895,0.000983610516,0.00137350121
-6.5,8.42127468e-06,0.000129776883,0.000348326024,0.000638406794,0.000984198688,0.00137436621
-6.55,8.48079052e-06,0.000130196621,0.00034880028,0.000638865859,0.000984786368,0.00137522405
-6.6,8.54356863e-06,0.000130643397,0.000349303749,0.000639338792,0.000985374267,0.00137607501
