vds,vb1,vb2,vb3,vb4,vb5,vb6
0.0,-8.35100309e-23,-4.49294622e-25,4.1626153799999994e-24,3.03387067e-24,-3.14422643e-24,-3.4989247499999996e-24
-0.05,1.18529668e-06,5.42636061e-06,8.80059207e-06,1.16147055e-05,1.40437729e-05,1.62000549e-05
-0.1,2.06584922e-06,1.05298388e-05,1.72996535e-05,2.29472898e-05,2.78216097e-05,3.21475775e-05
-0.15,2.68136281e-06,1.53445389e-05,2.55305392e-05,3.40305241e-05,4.13657919e-05,4.78744223e-05
-0.2,3.05571455e-06,1.98789555e-05,3.3501565e-05,4.48726174e-05,5.46844472e-05,6.33886503e-05
-0.25,3.23731083e-06,2.41355017e-05,4.12150232e-05,5.54758118e-05,6.77797864e-05,7.86924509e-05
-0.3,3.3102864e-06,2.81151599e-05,4.86717595e-05,6.58409018e-05,8.06525726e-05,9.37865654e-05
-0.35,3.34261393e-06,3.18185915e-05,5.58722736e-05,7.5968331e-05,9.33032148e-05,0.000108671379
-0.4,3.36165682e-06,3.52464108e-05,6.28169829e-05,8.58584581e-05,0.000105732035,0.000123347187
-0.45,3.37568025e-06,3.8399264e-05,6.95062869e-05,9.55116216e-05,0.000117939336,0.000137814267
-0.5,3.38733908e-06,4.12778732e-05,7.59405825e-05,0.000104928155,0.000129925412,0.000152072886
-0.55,3.39764372e-06,4.38830893e-05,8.21202681e-05,0.000114108391,0.000141690559,0.000166123314
-0.6,3.40704952e-06,4.62159783e-05,8.8045746e-05,0.000123052663,0.00015323507,0.000179965818
-0.65,3.41579388e-06,4.82779791e-05,9.37174226e-05,0.000131761303,0.000164559241,0.000193600665
-0.7,3.42401646e-06,5.00711976e-05,9.91357106e-05,0.000140234646,0.000175663366,0.000207028124
-0.75,3.43180784e-06,5.1598978e-05,0.000104301031,0.000148473025,0.000186547738,0.00022024846
-0.8,3.43923141e-06,5.28670204e-05,0.000109213813,0.000156476777,0.000197212652,0.000233261941
-0.85,3.4463343e-06,5.38855014e-05,0.000113874504,0.000164246237,0.000207658404,0.000246068834
-0.9,3.45315309e-06,5.46726227e-05,0.000118283565,0.000171781742,0.000217885286,0.000258669407
-0.95,3.45971721e-06,5.52587367e-05,0.000122441486,0.000179083633,0.000227893595,0.000271063924
-1.0,3.46605097e-06,5.56868305e-05,0.000126348792,0.000186152249,0.000237683624,0.000283252655
-1.05,3.47217482e-06,5.60045423e-05,0.000130006055,0.000192987934,0.00024725567,0.000295235864
-1.1,3.47810629e-06,5.62520855e-05,0.000133413922,0.000199591034,0.000256610028,0.000307013818
-1.15,3.48386055e-06,5.64565149e-05,0.000136573144,0.000205961899,0.000265746993,0.000318586785
-1.2,3.4894509e-06,5.66337206e-05,0.000139484628,0.000212100881,0.000274666862,0.00032995503
-1.25,3.49488908e-06,5.67926287e-05,0.00014214952,0.00021800834,0.000283369933,0.000341118821
-1.3,3.50018554e-06,5.69383469e-05,0.000144569342,0.000223684643,0.000291856502,0.000352078424
-1.35,3.50534963e-06,5.70739526e-05,0.000146746211,0.000229130162,0.00030012687,0.000362834105
-1.4,3.51038976e-06,5.72014202e-05,0.000148683208,0.000234345283,0.000308181334,0.000373386132
-1.45,3.51531354e-06,5.73220981e-05,0.000150384993,0.000239330406,0.000316020197,0.000383734771
-1.5,3.52012787e-06,5.74369595e-05,0.00015185878,0.000244085947,0.00032364376,0.00039388029
-1.55,3.52483904e-06,5.75467401e-05,0.000153115772,0.000248612348,0.000331052327,0.000403822956
-1.6,3.52945281e-06,5.76520174e-05,0.000154172859,0.000252910081,0.000338246206,0.000413563036
-1.65,3.53397445e-06,5.77532585e-05,0.000155053771,0.000256979661,0.000345225704,0.000423100799
-1.7,3.53840881e-06,5.78508499e-05,0.00015578818,0.000260821663,0.000351991134,0.000432436513
-1.75,3.54276035e-06,5.7945118e-05,0.00015640794,0.000264436741,0.000358542811,0.000441570448
-1.8,3.54703323e-06,5.80363421e-05,0.000156942108,0.000267825661,0.000364881056,0.000450502872
-1.85,3.55123125e-06,5.81247643e-05,0.000157413654,0.000270989352,0.000371006194,0.000459234056
-1.9,3.55535797e-06,5.82105966e-05,0.00015783901,0.000273928975,0.000376918558,0.000467764271
-1.95,3.5594167e-06,5.82940262e-05,0.000158229348,0.000276646036,0.00038261849,0.00047609379
-2.0,3.56341052e-06,5.83752194e-05,0.000158592194,0.000279142547,0.00038810634,0.000484222885
-2.05,3.56734229e-06,5.84543251e-05,0.000158932708,0.00028142129,0.000393382474,0.000492151832
-2.1,3.5712147e-06,5.85314771e-05,0.000159254549,0.000283486196,0.000398447275,0.000499880907
-2.15,3.57503027e-06,5.86067963e-05,0.000159560408,0.000285342909,0.000403301144,0.000507410388
-2.2,3.57879136e-06,5.86803924e-05,0.000159852336,0.00028699954,0.000407944515,0.000514740556
-2.25,3.58250018e-06,5.87523651e-05,0.000160131948,0.000288467547,0.000412377854,0.000521871694
-2.3,3.58615881e-06,5.88228058e-05,0.000160400549,0.000289762432,0.000416601675,0.000528804089
-2.35,3.58976922e-06,5.88917981e-05,0.000160659218,0.000290903748,0.000420616557,0.000535538032
-2.4,3.59333324e-06,5.89594187e-05,0.000160908864,0.000291913889,0.000424423161,0.000542073818
-2.45,3.59685264e-06,5.90257385e-05,0.000161150262,0.000292815789,0.000428022267,0.000548411748
-2.5,3.60032906e-06,5.90908228e-05,0.000161384084,0.000293630448,0.00043141481,0.00055455213
-2.55,3.60376406e-06,5.91547322e-05,0.000161610915,0.000294375355,0.00043460195,0.00056049528
-2.6,3.60715913e-06,5.92175228e-05,0.000161831271,0.000295064142,0.000437585155,0.000566241524
-2.65,3.61051568e-06,5.92792468e-05,0.00016204561,0.000295707061,0.000440366336,0.000571791201
-2.7,3.61383505e-06,5.93399527e-05,0.000162254342,0.000296311754,0.000442948034,0.000577144666
-2.75,3.61711854e-06,5.93996859e-05,0.000162457832,0.000296883967,0.000445333682,0.000582302291
-2.8,3.62036736e-06,5.94584887e-05,0.000162656412,0.000297428105,0.000447527965,0.000587264476
-2.85,3.62358271e-06,5.95164009e-05,0.00016285038,0.00029794762,0.000449537278,0.000592031649
-2.9,3.62676574e-06,5.95734595e-05,0.00016304001,0.000298445284,0.000451370227,0.000596604279
-2.95,3.62991755e-06,5.96296993e-05,0.00016322555,0.000298923366,0.000453038044,0.000600982884
-3.0,3.63303924e-06,5.96851533e-05,0.000163407226,0.000299383761,0.000454554679,0.000605168051
-3.05,3.63613189e-06,5.97398522e-05,0.000163585248,0.000299828072,0.00045593632,0.000609160452
-3.1,3.63919657e-06,5.97938252e-05,0.000163759807,0.000300257675,0.00045720029,0.000612960874
-3.15,3.64223436e-06,5.98470996e-05,0.000163931081,0.000300673765,0.000458363611,0.000616570261
-3.2,3.64524635e-06,5.98997014e-05,0.000164099233,0.000301077386,0.000459441753,0.000619989763
-3.25,3.64823368e-06,5.99516552e-05,0.000164264414,0.00030146946,0.000460447925,0.000623220816
-3.3,3.65119752e-06,6.00029843e-05,0.000164426766,0.000301850806,0.000461392954,0.000626265242
-3.35,3.65413909e-06,6.00537108e-05,0.000164586419,0.000302222156,0.000462285525,0.00062912539
-3.4,3.6570597e-06,6.01038557e-05,0.000164743496,0.000302584167,0.000463132579,0.000631804332
-3.45,3.65996076e-06,6.01534393e-05,0.00016489811,0.00030293743,0.000463939693,0.0006343061
-3.5,3.66284378e-06,6.02024806e-05,0.000165050367,0.000303282484,0.0004647114,0.000636635981
-3.55,3.6657104e-06,6.02509983e-05,0.000165200369,0.000303619815,0.000465451442,0.000638800821
-3.6,3.66856243e-06,6.02990103e-05,0.000165348207,0.000303949868,0.000466162948,0.000640809273
-3.65,3.67140187e-06,6.03465339e-05,0.000165493971,0.00030427305,0.00046684857,0.000642671857
-3.7,3.6742309e-06,6.03935861e-05,0.000165637742,0.000304589736,0.000467510582,0.000644400726
-3.75,3.67705196e-06,6.04401836e-05,0.000165779598,0.000304900268,0.000468150954,0.000646009076
-3.8,3.67986774e-06,6.0486343e-05,0.000165919613,0.000305204963,0.000468771407,0.000647510329
-3.85,3.68268123e-06,6.05320812e-05,0.000166057855,0.000305504115,0.000469373455,0.000648917311
-3.9,3.68549573e-06,6.05774149e-05,0.000166194391,0.000305797993,0.000469958443,0.000650241649
-3.95,3.68831492e-06,6.06223616e-05,0.000166329283,0.000306086851,0.000470527567,0.00065149349
-4.0,3.69114286e-06,6.06669394e-05,0.000166462588,0.000306370922,0.0004710819,0.000652681476
-4.05,3.69398404e-06,6.07111672e-05,0.000166594364,0.000306650424,0.000471622406,0.000653812891
-4.1,3.69684341e-06,6.0755065e-05,0.000166724663,0.000306925561,0.000472149958,0.000654893861
-4.15,3.69972644e-06,6.07986545e-05,0.000166853537,0.000307196523,0.000472665348,0.000655929559
-4.2,3.70263911e-06,6.08419591e-05,0.000166981034,0.000307463487,0.000473169296,0.000656924381
-4.25,3.705588e-06,6.08850041e-05,0.000167107201,0.000307726621,0.00047366246,0.000657882097
-4.3,3.70858031e-06,6.09278174e-05,0.000167232083,0.000307986081,0.00047414544,0.000658805964
-4.35,3.71162389e-06,6.09704298e-05,0.000167355726,0.000308242014,0.000474618792,0.000659698818
-4.4,3.71472729e-06,6.10128753e-05,0.000167478171,0.00030849456,0.000475083023,0.000660563146
-4.45,3.7178998e-06,6.10551917e-05,0.000167599463,0.000308743849,0.000475538602,0.000661401141
-4.5,3.72115149e-06,6.10974209e-05,0.000167719643,0.000308990003,0.000475985965,0.000662214752
-4.55,3.72449326e-06,6.11396094e-05,0.000167838755,0.00030923314,0.000476425513,0.000663005715
-4.6,3.72793686e-06,6.1181809e-05,0.000167956843,0.00030947337,0.00047685762,0.000663775587
-4.65,3.73149494e-06,6.12240772e-05,0.000168073952,0.000309710797,0.000477282632,0.000664525769
-4.7,3.7351811e-06,6.12664779e-05,0.000168190128,0.000309945521,0.000477700874,0.000665257527
-4.75,3.7390099e-06,6.13090817e-05,0.000168305422,0.000310177637,0.000478112647,0.000665972006
-4.8,3.74299695e-06,6.13519668e-05,0.000168419887,0.000310407234,0.000478518234,0.000666670252
-4.85,3.74715888e-06,6.13952193e-05,0.00016853358,0.000310634399,0.000478917899,0.000667353214
-4.9,3.75151343e-06,6.14389344e-05,0.000168646563,0.000310859215,0.000479311889,0.000668021765
-4.95,3.75607946e-06,6.14832163e-05,0.000168758904,0.000311081761,0.000479700437,0.000668676701
-5.0,3.76087701e-06,6.15281794e-05,0.000168870679,0.000311302117,0.000480083761,0.000669318758
-5.05,3.76592727e-06,6.15739489e-05,0.000168981969,0.000311520357,0.000480462068,0.000669948611
-5.1,3.77125269e-06,6.16206611e-05,0.000169092868,0.000311736556,0.00048083555,0.000670566886
-5.15,3.77687698e-06,6.16684647e-05,0.000169203477,0.000311950789,0.000481204392,0.00067117416
-5.2,3.7828251e-06,6.17175209e-05,0.00016931391,0.00031216313,0.000481568766,0.00067177097
-5.25,3.78912334e-06,6.17680043e-05,0.000169424295,0.000312373655,0.000481928835,0.000672357814
-5.3,3.79579934e-06,6.18201037e-05,0.000169534772,0.000312582441,0.000482284755,0.000672935154
-5.35,3.80288208e-06,6.18740226e-05,0.000169645498,0.00031278957,0.000482636674,0.000673503424
-5.4,3.81040191e-06,6.192998e-05,0.000169756649,0.000312995125,0.00048298473,0.000674063026
-5.45,3.81839063e-06,6.19882108e-05,0.000169868417,0.000313199197,0.000483329058,0.000674614338
-5.5,3.82688141e-06,6.20489668e-05,0.000169981017,0.000313401884,0.000483669786,0.000675157713
-5.55,3.83590888e-06,6.21125171e-05,0.000170094686,0.00031360329,0.000484007036,0.000675693482
-5.6,3.84550914e-06,6.21791487e-05,0.000170209684,0.00031380353,0.000484340926,0.000676221956
-5.65,3.85571972e-06,6.22491673e-05,0.000170326298,0.000314002732,0.000484671572,0.000676743428
-5.7,3.86657965e-06,6.23228975e-05,0.000170444842,0.000314201034,0.000484999085,0.000677258172
-5.75,3.87812945e-06,6.24006837e-05,0.000170565661,0.000314398594,0.000485323575,0.00067776645
-5.8,3.89041114e-06,6.24828908e-05,0.00017068913,0.000314595584,0.000485645151,0.000678268505
-5.85,3.90346821e-06,6.25699041e-05,0.000170815657,0.000314792197,0.000485963922,0.000678764569
-5.9,3.91734569e-06,6.26621301e-05,0.000170945686,0.00031498865,0.000486279999,0.000679254862
-5.95,3.93209011e-06,6.27599972e-05,0.000171079698,0.000315185181,0.000486593494,0.00067973959
-6.0,3.9477495e-06,6.28639559e-05,0.000171218213,0.000315382061,0.000486904526,0.000680218952
-6.05,3.96437339e-06,6.2974479e-05,0.000171361791,0.000315579585,0.000487213218,0.000680693136
-6.1,3.98201285e-06,6.30920624e-05,0.000171511035,0.000315778088,0.0004875197,0.000681162319
-6.15,4.00072042e-06,6.32172252e-05,0.000171666592,0.000315977935,0.000487824113,0.000681626673
-6.2,4.02055015e-06,6.33505099e-05,0.000171829156,0.000316179535,0.00048812661,0.000682086363
-6.25,4.04155757e-06,6.3492483e-05,0.000171999467,0.000316383336,0.000488427358,0.000682541547
-6.3,4.06379969e-06,6.36437351e-05,0.000172178317,0.000316589835,0.00048872654,0.000682992378
-6.35,4.087335e-06,6.38048809e-05,0.000172366547,0.000316799576,0.000489024359,0.000683439005
-6.4,4.11222343e-06,6.39765598e-05,0.000172565052,0.000317013156,0.000489321042,0.000683881576
-6.45,4.13852638e-06,6.41594357e-05,0.00017277478,0.000317231227,0.000489616841,0.000684320237
-6.5,4.16630664e-06,6.43541975e-05,0.000172996735,0.000317454501,0.000489912036,0.000684755132
-6.55,4.19562846e-06,6.45615586e-05,0.000173231978,0.000317683753,0.000490206942,0.000685186409
-6.6,4.22655744e-06,6.47822577e-05,0.00017348163,0.000317919823,0.00049050191,0.00068561422
