vds,vb1,vb2,vb3,vb4,vb5,vb6
0.0,-1.58568181e-32,-2.95537477e-22,-2.79502299e-22,-5.2254207499999995e-22,-1.77276608e-30,6.794439080000001e-20
-0.05,3.96080259e-07,2.79173671e-06,4.50129676e-06,5.79838473e-06,6.82654222e-06,7.66879703e-06
-0.1,6.55319073e-07,5.42194175e-06,8.85354415e-06,1.14601139e-05,1.35273012e-05,1.52211699e-05
-0.15,7.92479333e-07,7.89213684e-06,1.30578358e-05,1.69860173e-05,2.01029301e-05,2.26576476e-05
-0.2,8.48277864e-07,1.02038404e-05,1.71152613e-05,2.23769224e-05,2.65540807e-05,2.99787582e-05
-0.25,8.72814502e-07,1.23585697e-05,2.1026906e-05,2.76336542e-05,3.28814035e-05,3.71850289e-05
-0.3,8.88902346e-07,1.43578459e-05,2.4793851e-05,3.27570354e-05,3.90855471e-05,4.42769859e-05
-0.35,9.0230913e-07,1.62032007e-05,2.84171733e-05,3.77478857e-05,4.51671591e-05,5.12551546e-05
-0.4,9.14518933e-07,1.78961893e-05,3.1897946e-05,4.26070227e-05,5.1126885e-05,5.81200591e-05
-0.45,9.26024778e-07,1.943841e-05,3.52372384e-05,4.7335261e-05,5.69653691e-05,6.48722227e-05
-0.5,9.37038243e-07,2.08315402e-05,3.8436117e-05,5.1933413e-05,6.26832539e-05,7.15121677e-05
-0.55,9.47671225e-07,2.20774018e-05,4.14956449e-05,5.64022882e-05,6.82811801e-05,7.8040415e-05
-0.6,9.57992969e-07,2.31780853e-05,4.44168838e-05,6.07426935e-05,7.37597871e-05,8.44574848e-05
-0.65,9.68051347e-07,2.41361925e-05,4.72008941e-05,6.49554335e-05,7.91197121e-05,9.07638959e-05
-0.7,9.7788206e-07,2.49553255e-05,4.98487365e-05,6.904131e-05,8.43615909e-05,9.69601659e-05
-0.75,9.87513127e-07,2.56410499e-05,5.23614744e-05,7.30011226e-05,8.94860575e-05,0.000103046811
-0.8,9.96967319e-07,2.62026053e-05,5.47401764e-05,7.68356686e-05,9.4493744e-05,0.000109024348
-0.85,1.00626361e-06,2.66550945e-05,5.69859205e-05,8.05457428e-05,9.9385281e-05,0.000114893289
-0.9,1.0154181e-06,2.70200716e-05,5.90998004e-05,8.41321385e-05,0.000104161297,0.000120654149
-0.95,1.02444461e-06,2.73216725e-05,6.10829348e-05,8.7595647e-05,0.000108822419,0.000126307438
-1.0,1.03335519e-06,2.75803381e-05,6.2936482e-05,9.09370583e-05,0.000113369273,0.000131853667
-1.05,1.04216038e-06,2.78098962e-05,6.46616622e-05,9.41571615e-05,0.000117802481,0.000137293345
-1.1,1.05086948e-06,2.80186993e-05,6.62597949e-05,9.72567452e-05,0.000122122666,0.00014262698
-1.15,1.05949078e-06,2.8211751e-05,6.77323593e-05,0.000100236599,0.000126330448,0.000147855079
-1.2,1.06803166e-06,2.83922107e-05,6.90810965e-05,0.000103097512,0.000130426447,0.000152978147
-1.25,1.07649877e-06,2.85622192e-05,7.03081836e-05,0.000105840279,0.000134411279,0.000157996688
-1.3,1.08489806e-06,2.87233233e-05,7.14165246e-05,0.000108465697,0.00013828556,0.000162911206
-1.35,1.09323496e-06,2.88766994e-05,7.24102185e-05,0.00011097457,0.000142049906,0.000167722201
-1.4,1.10151437e-06,2.90232771e-05,7.32952211e-05,0.000113367714,0.000145704931,0.000172430176
-1.45,1.10974076e-06,2.91638119e-05,7.40800447e-05,0.000115645958,0.000149251247,0.000177035628
-1.5,1.11791821e-06,2.92989308e-05,7.47759939e-05,0.000117810156,0.000152689468,0.000181539056
-1.55,1.12605047e-06,2.94291629e-05,7.53963153e-05,0.000119861191,0.000156020206,0.000185940958
-1.6,1.13414097e-06,2.95549602e-05,7.59543605e-05,0.000121799997,0.000159244073,0.000190241829
-1.65,1.14219286e-06,2.96767129e-05,7.64618506e-05,0.000123627575,0.000162361684,0.000194442165
-1.7,1.15020907e-06,2.97947607e-05,7.69281428e-05,0.000125345032,0.000165373651,0.000198542461
-1.75,1.15819228e-06,2.99094018e-05,7.73603827e-05,0.000126953635,0.000168280594,0.000202543208
-1.8,1.16614499e-06,3.00208994e-05,7.77639957e-05,0.000128454891,0.00017108313,0.000206444902
-1.85,1.17406951e-06,3.01294871e-05,7.81431599e-05,0.000129850679,0.000173781885,0.000210248032
-1.9,1.18196801e-06,3.02353735e-05,7.85011614e-05,0.000131143441,0.00017637749,0.000213953092
-1.95,1.18984248e-06,3.03387453e-05,7.88406388e-05,0.00013233644,0.000178870583,0.000217560572
-2.0,1.19769479e-06,3.04397709e-05,7.91637498e-05,0.000133434066,0.000181261816,0.000221070963
-2.05,1.20552669e-06,3.05386023e-05,7.94722861e-05,0.000134442074,0.000183551856,0.000224484756
-2.1,1.21333981e-06,3.06353772e-05,7.97677551e-05,0.000135367586,0.00018574139,0.000227802443
-2.15,1.22113568e-06,3.07302209e-05,8.00514387e-05,0.000136218731,0.000187831137,0.000231024516
-2.2,1.22891575e-06,3.08232479e-05,8.03244372e-05,0.000137003982,0.000189821856,0.000234151467
-2.25,1.23668134e-06,3.09145627e-05,8.0587703e-05,0.000137731503,0.000191714361,0.000237183789
-2.3,1.24443375e-06,3.10042612e-05,8.0842066e-05,0.000138408687,0.000193509548,0.000240121979
-2.35,1.25217415e-06,3.10924317e-05,8.10882546e-05,0.000139041982,0.000195208426,0.000242966534
-2.4,1.25990368e-06,3.11791554e-05,8.1326911e-05,0.000139636893,0.000196812167,0.000245717955
-2.45,1.2676234e-06,3.12645076e-05,8.15586051e-05,0.000140198072,0.000198322186,0.000248376744
-2.5,1.27533431e-06,3.13485576e-05,8.17838444e-05,0.00014072945,0.000199740256,0.000250943411
-2.55,1.28303736e-06,3.14313699e-05,8.20030835e-05,0.000141234348,0.000201068665,0.000253418467
-2.6,1.29073347e-06,3.15130044e-05,8.22167305e-05,0.000141715592,0.000202310423,0.00025580243
-2.65,1.29842348e-06,3.15935169e-05,8.24251538e-05,0.000142175593,0.000203469439,0.000258095821
-2.7,1.30610822e-06,3.16729593e-05,8.26286865e-05,0.000142616423,0.000204550598,0.000260299169
-2.75,1.31378845e-06,3.17513801e-05,8.28276313e-05,0.000143039875,0.000205559623,0.000262413005
-2.8,1.32146493e-06,3.18288247e-05,8.30222638e-05,0.000143447505,0.000206502756,0.000264437861
-2.85,1.32913837e-06,3.19053355e-05,8.32128357e-05,0.000143840675,0.000207386352,0.000266374267
-2.9,1.33680946e-06,3.19809526e-05,8.33995775e-05,0.000144220579,0.000208216534,0.00026822275
-2.95,1.34447886e-06,3.20557132e-05,8.35827008e-05,0.000144588273,0.00020899896,0.000269983838
-3.0,1.35214723e-06,3.21296526e-05,8.37624002e-05,0.000144944693,0.000209738721,0.000271658083
-3.05,1.35981519e-06,3.22028039e-05,8.39388555e-05,0.000145290673,0.000210440316,0.000273246136
-3.1,1.36748338e-06,3.22751983e-05,8.41122324e-05,0.000145626959,0.000211107686,0.000274748887
-3.15,1.37515241e-06,3.23468655e-05,8.42826849e-05,0.00014595422,0.000211744266,0.000276167705
-3.2,1.38282293e-06,3.24178333e-05,8.44503553e-05,0.000146273061,0.000212353051,0.000277504716
-3.25,1.39049555e-06,3.2488128e-05,8.46153764e-05,0.000146584025,0.000212936651,0.000278763031
-3.3,1.39817094e-06,3.25577747e-05,8.47778716e-05,0.000146887609,0.000213497347,0.000279946772
-3.35,1.40584976e-06,3.26267972e-05,8.49379559e-05,0.000147184262,0.000214037139,0.00028106089
-3.4,1.41353272e-06,3.26952181e-05,8.5095737e-05,0.000147474395,0.00021455779,0.000282110821
-3.45,1.42122056e-06,3.27630589e-05,8.52513154e-05,0.000147758382,0.000215060854,0.00028310213
-3.5,1.42891408e-06,3.28303403e-05,8.54047854e-05,0.00014803657,0.00021554771,0.000284040218
-3.55,1.43661414e-06,3.28970819e-05,8.55562354e-05,0.000148309273,0.000216019586,0.00028493014
-3.6,1.44432164e-06,3.29633027e-05,8.57057485e-05,0.000148576783,0.000216477577,0.00028577651
-3.65,1.45203761e-06,3.30290212e-05,8.5853403e-05,0.000148839371,0.000216922669,0.000286583474
-3.7,1.45976314e-06,3.30942549e-05,8.59992723e-05,0.000149097284,0.000217355743,0.000287354726
-3.75,1.46749943e-06,3.31590213e-05,8.61434261e-05,0.000149350754,0.0002177776,0.000288093535
-3.8,1.47524783e-06,3.32233373e-05,8.62859298e-05,0.000149599994,0.00021818896,0.000288802796
-3.85,1.48300979e-06,3.32872197e-05,8.64268455e-05,0.000149845204,0.00021859048,0.000289485067
-3.9,1.49078696e-06,3.33506853e-05,8.65662321e-05,0.000150086571,0.000218982758,0.00029014261
-3.95,1.49858111e-06,3.34137509e-05,8.67041452e-05,0.000150324266,0.000219366338,0.000290777437
-4.0,1.50639423e-06,3.34764333e-05,8.68406379e-05,0.000150558453,0.000219741719,0.000291391332
-4.05,1.51422852e-06,3.35387501e-05,8.69757607e-05,0.000150789283,0.00022010936,0.000291985889
-4.1,1.52208639e-06,3.36007192e-05,8.71095618e-05,0.000151016897,0.000220469682,0.000292562534
-4.15,1.52997051e-06,3.36623593e-05,8.72420874e-05,0.000151241431,0.000220823073,0.000293122545
-4.2,1.53788382e-06,3.372369e-05,8.7373382e-05,0.000151463008,0.00022116989,0.000293667074
-4.25,1.54582952e-06,3.37847322e-05,8.75034884e-05,0.000151681748,0.000221510466,0.000294197158
-4.3,1.55381116e-06,3.3845508e-05,8.76324481e-05,0.00015189776,0.000221845108,0.000294713738
-4.35,1.5618326e-06,3.39060414e-05,8.77603017e-05,0.000152111152,0.000222174103,0.000295217668
-4.4,1.56989807e-06,3.39663579e-05,8.78870889e-05,0.000152322021,0.000222497714,0.000295709723
-4.45,1.57801218e-06,3.40264857e-05,8.80128492e-05,0.000152530462,0.000222816191,0.000296190613
-4.5,1.58617992e-06,3.4086455e-05,8.81376216e-05,0.000152736563,0.000223129763,0.000296660986
-4.55,1.59440675e-06,3.41462989e-05,8.82614458e-05,0.00015294041,0.000223438648,0.000297121436
-4.6,1.60269856e-06,3.42060538e-05,8.83843616e-05,0.000153142083,0.000223743048,0.00029757251
-4.65,1.61106172e-06,3.42657591e-05,8.85064101e-05,0.000153341659,0.000224043152,0.000298014709
-4.7,1.61950311e-06,3.43254583e-05,8.86276338e-05,0.000153539211,0.000224339138,0.0002984485
-4.75,1.62803015e-06,3.43851988e-05,8.8748077e-05,0.00015373481,0.000224631173,0.000298874311
-4.8,1.63665081e-06,3.44450325e-05,8.88677865e-05,0.000153928524,0.000224919415,0.000299292539
-4.85,1.64537363e-06,3.45050161e-05,8.8986812e-05,0.00015412042,0.000225204014,0.000299703554
-4.9,1.65420777e-06,3.45652116e-05,8.91052066e-05,0.00015431056,0.000225485107,0.000300107699
-4.95,1.66316303e-06,3.46256865e-05,8.92230278e-05,0.000154499009,0.000225762829,0.000300505293
-5.0,1.67224986e-06,3.46865143e-05,8.93403375e-05,0.000154685829,0.000226037305,0.000300896635
-5.05,1.68147939e-06,3.47477748e-05,8.94572034e-05,0.000154871082,0.000226308653,0.000301282002
-5.1,1.69086349e-06,3.48095548e-05,8.9573699e-05,0.000155054829,0.000226576987,0.000301661657
-5.15,1.70041472e-06,3.48719482e-05,8.9689905e-05,0.000155237136,0.000226842414,0.000302035841
-5.2,1.71014644e-06,3.49350564e-05,8.98059098e-05,0.000155418066,0.000227105037,0.000302404786
-5.25,1.72007277e-06,3.4998989e-05,8.99218101e-05,0.000155597687,0.000227364954,0.000302768705
-5.3,1.73020865e-06,3.50638638e-05,9.00377122e-05,0.000155776069,0.00022762226,0.000303127801
-5.35,1.74056986e-06,3.51298075e-05,9.01537325e-05,0.000155953286,0.000227877045,0.000303482265
-5.4,1.75117301e-06,3.51969561e-05,9.02699988e-05,0.000156129418,0.0002281294,0.000303832276
-5.45,1.76203561e-06,3.52654553e-05,9.03866507e-05,0.00015630455,0.000228379409,0.000304178004
-5.5,1.77317606e-06,3.53354604e-05,9.05038411e-05,0.000156478772,0.000228627159,0.00030451961
-5.55,1.78461369e-06,3.54071376e-05,9.06217368e-05,0.000156652185,0.000228872733,0.000304857246
-5.6,1.79636877e-06,3.54806635e-05,9.07405196e-05,0.000156824897,0.000229116215,0.000305191057
-5.65,1.80846252e-06,3.5556226e-05,9.08603874e-05,0.000156997026,0.000229357691,0.000305521179
-5.7,1.82091716e-06,3.56340245e-05,9.0981555e-05,0.000157168702,0.000229597247,0.000305847744
-5.75,1.8337559e-06,3.571427e-05,9.11042552e-05,0.000157340069,0.000229834972,0.000306170877
-5.8,1.84700298e-06,3.57971861e-05,9.122874e-05,0.000157511282,0.00023007096,0.000306490698
-5.85,1.86068367e-06,3.58830084e-05,9.13552814e-05,0.000157682515,0.000230305307,0.000306807322
-5.9,1.87482429e-06,3.59719856e-05,9.14841723e-05,0.000157853957,0.000230538117,0.000307120863
-5.95,1.88945225e-06,3.60643795e-05,9.16157278e-05,0.000158025817,0.000230769502,0.000307431428
-6.0,1.90459602e-06,3.61604649e-05,9.1750286e-05,0.000158198322,0.000230999579,0.000307739125
-6.05,1.9202852e-06,3.62605307e-05,9.18882091e-05,0.000158371723,0.000231228478,0.000308044059
-6.1,1.93655047e-06,3.63648792e-05,9.20298842e-05,0.000158546294,0.000231456341,0.000308346336
-6.15,1.95342367e-06,3.64738272e-05,9.21757243e-05,0.000158722333,0.000231683322,0.00030864606
-6.2,1.97093776e-06,3.65877055e-05,9.23261692e-05,0.000158900166,0.000231909588,0.00030894334
-6.25,1.98912687e-06,3.67068595e-05,9.24816865e-05,0.000159080147,0.000232135328,0.000309238286
-6.3,2.00802627e-06,3.68316492e-05,9.26427722e-05,0.000159262661,0.000232360744,0.000309531012
-6.35,2.02767242e-06,3.69624494e-05,9.28099517e-05,0.000159448124,0.000232586064,0.000309821637
-6.4,2.04810297e-06,3.709965e-05,9.29837806e-05,0.000159636986,0.000232811534,0.000310110289
-6.45,2.06935673e-06,3.72436557e-05,9.31648455e-05,0.000159829732,0.00023303743,0.000310397103
-6.5,2.09147374e-06,3.73948867e-05,9.33537642e-05,0.000160026885,0.000233264051,0.000310682224
-6.55,2.11449523e-06,3.7553778e-05,9.35511871e-05,0.000160229006,0.000233491728,0.000310965811
-6.6,2.13846366e-06,3.77207803e-05,9.37577972e-05,0.000160436698,0.000233720822,0.000311248035
