vds,vb1,vb2,vb3,vb4,vb5,vb6
0.0,-4.8125145e-32,-1.7683531e-22,-5.097187539999999e-22,1.57986701e-20,-4.9928768800000005e-31,1.94850768e-20
-0.05,1.79158903e-07,8.77278175e-07,1.40787684e-06,1.8309758e-06,2.18063667e-06,2.47765176e-06
-0.1,3.13946483e-07,1.70675214e-06,2.77148571e-06,3.6213073e-06,4.32389387e-06,4.9207887e-06
-0.15,4.05941199e-07,2.48876965e-06,4.09105934e-06,5.37115739e-06,6.4298891e-06,7.32949763e-06
-0.2,4.59322708e-07,3.22367932e-06,5.36683084e-06,7.08068951e-06,8.49874039e-06,9.7038658e-06
-0.25,4.84771261e-07,3.91183101e-06,6.59903348e-06,8.75006737e-06,1.05305661e-05,1.20439808e-05
-0.3,4.97032372e-07,4.5535769e-06,7.78790077e-06,1.03794551e-05,1.2525485e-05,1.43499306e-05
-0.35,5.04914719e-07,5.14927304e-06,8.93366644e-06,1.1969017e-05,1.44836162e-05,1.66218034e-05
-0.4,5.11312195e-07,5.69928193e-06,1.00365645e-05,1.35189179e-05,1.64050791e-05,1.88596879e-05
-0.45,5.17061829e-07,6.20397668e-06,1.10968294e-05,1.50293228e-05,1.82899936e-05,2.1063673e-05
-0.5,5.22444379e-07,6.6637482e-06,1.2114696e-05,1.65003972e-05,2.01384799e-05,2.3233848e-05
-0.55,5.2757527e-07,7.07901782e-06,1.30903995e-05,1.79323066e-05,2.19506584e-05,2.53703025e-05
-0.6,5.32511841e-07,7.45026037e-06,1.40241763e-05,1.9325217e-05,2.372665e-05,2.74731264e-05
-0.65,5.37287511e-07,7.77804795e-06,1.49162633e-05,2.06792947e-05,2.54665757e-05,2.95424099e-05
-0.7,5.41924376e-07,8.06313542e-06,1.57668992e-05,2.19947064e-05,2.7170557e-05,3.15782434e-05
-0.75,5.46438474e-07,8.30663001e-06,1.65763243e-05,2.3271619e-05,2.88387156e-05,3.35807178e-05
-0.8,5.50842253e-07,8.51031804e-06,1.73447816e-05,2.45101997e-05,3.04711735e-05,3.55499241e-05
-0.85,5.55145826e-07,8.67721942e-06,1.80725179e-05,2.57106163e-05,3.20680531e-05,3.74859536e-05
-0.9,5.59357679e-07,8.81223035e-06,1.8759785e-05,2.6873037e-05,3.36294769e-05,3.9388898e-05
-0.95,5.63485097e-07,8.92215158e-06,1.94068425e-05,2.79976306e-05,3.51555678e-05,4.12588492e-05
-1.0,5.67534435e-07,9.01434216e-06,2.00139607e-05,2.90845662e-05,3.6646449e-05,4.30958992e-05
-1.05,5.71511305e-07,9.09483483e-06,2.05814268e-05,3.01340142e-05,3.8102244e-05,4.49001405e-05
-1.1,5.75420708e-07,9.16758829e-06,2.11095528e-05,3.11461455e-05,3.95230766e-05,4.66716657e-05
-1.15,5.79267132e-07,9.23491198e-06,2.15986899e-05,3.21211322e-05,4.09090711e-05,4.84105677e-05
-1.2,5.83054631e-07,9.29813146e-06,2.20492516e-05,3.30591481e-05,4.22603517e-05,5.01169398e-05
-1.25,5.86786885e-07,9.35804596e-06,2.24617524e-05,3.39603685e-05,4.35770436e-05,5.17908753e-05
-1.3,5.90467246e-07,9.41517574e-06,2.28368729e-05,3.48249714e-05,4.48592719e-05,5.34324679e-05
-1.35,5.9409878e-07,9.4698867e-06,2.31755693e-05,3.56531378e-05,4.61071625e-05,5.50418116e-05
-1.4,5.97684301e-07,9.52245359e-06,2.34792436e-05,3.64450528e-05,4.73208416e-05,5.66190007e-05
-1.45,6.01226398e-07,9.57309341e-06,2.37499782e-05,3.72009072e-05,4.85004361e-05,5.81641296e-05
-1.5,6.04727459e-07,9.62198398e-06,2.39907637e-05,3.79208995e-05,4.96460735e-05,5.9677293e-05
-1.55,6.08189693e-07,9.66927497e-06,2.42055313e-05,3.86052387e-05,5.07578823e-05,6.11585863e-05
-1.6,6.11615147e-07,9.71509486e-06,2.43987776e-05,3.92541489e-05,5.18359917e-05,6.26081046e-05
-1.65,6.15005722e-07,9.75955553e-06,2.45748669e-05,3.98678759e-05,5.28805321e-05,6.40259439e-05
-1.7,6.18363188e-07,9.80275552e-06,2.47374354e-05,4.04466969e-05,5.38916354e-05,6.54122002e-05
-1.75,6.21689193e-07,9.84478232e-06,2.48892038e-05,4.09909355e-05,5.4869435e-05,6.67669701e-05
-1.8,6.24985276e-07,9.88571419e-06,2.50321089e-05,4.15009857e-05,5.58140665e-05,6.80903504e-05
-1.85,6.28252879e-07,9.92562155e-06,2.51675294e-05,4.19773475e-05,5.67256681e-05,6.93824387e-05
-1.9,6.31493348e-07,9.96456803e-06,2.52964758e-05,4.24206816e-05,5.76043812e-05,7.06433329e-05
-1.95,6.34707949e-07,1.00026114e-05,2.54197178e-05,4.28318896e-05,5.84503519e-05,7.18731314e-05
-2.0,6.37897869e-07,1.00398044e-05,2.5537865e-05,4.32122176e-05,5.92637315e-05,7.30719337e-05
-2.05,6.41064225e-07,1.0076195e-05,2.56514154e-05,4.35633687e-05,6.00446788e-05,7.42398396e-05
-2.1,6.4420807e-07,1.01118274e-05,2.5760786e-05,4.38875701e-05,6.07933628e-05,7.537695e-05
-2.15,6.47330393e-07,1.01467423e-05,2.58663328e-05,4.41875192e-05,6.15099656e-05,7.64833669e-05
-2.2,6.50432132e-07,1.01809769e-05,2.59683637e-05,4.44661663e-05,6.21946882e-05,7.75591936e-05
-2.25,6.53514169e-07,1.0214566e-05,2.60671484e-05,4.47264043e-05,6.28477569e-05,7.86045346e-05
-2.3,6.56577341e-07,1.02475414e-05,2.61629252e-05,4.49708118e-05,6.34694347e-05,7.96194965e-05
-2.35,6.59622439e-07,1.0279933e-05,2.62559059e-05,4.52015425e-05,6.40600357e-05,8.0604188e-05
-2.4,6.62650213e-07,1.03117683e-05,2.63462801e-05,4.54203387e-05,6.46199475e-05,8.15587205e-05
-2.45,6.65661375e-07,1.03430729e-05,2.64342183e-05,4.56286038e-05,6.51496622e-05,8.24832087e-05
-2.5,6.686566e-07,1.0373871e-05,2.65198746e-05,4.58274807e-05,6.56498178e-05,8.33777717e-05
-2.55,6.7163653e-07,1.04041849e-05,2.66033888e-05,4.6017915e-05,6.61212508e-05,8.42425337e-05
-2.6,6.74601777e-07,1.04340357e-05,2.6684888e-05,4.6200703e-05,6.65650507e-05,8.50776261e-05
-2.65,6.77552922e-07,1.04634429e-05,2.67644883e-05,4.63765247e-05,6.69826001e-05,8.5883189e-05
-2.7,6.80490521e-07,1.0492425e-05,2.68422962e-05,4.65459683e-05,6.73755721e-05,8.66593743e-05
-2.75,6.83415103e-07,1.05209994e-05,2.69184092e-05,4.67095473e-05,6.77458642e-05,8.74063492e-05
-2.8,6.86327176e-07,1.05491824e-05,2.69929174e-05,4.68677138e-05,6.8095478e-05,8.81243016e-05
-2.85,6.89227225e-07,1.05769893e-05,2.70659037e-05,4.70208685e-05,6.8426384e-05,8.8813447e-05
-2.9,6.92115716e-07,1.06044347e-05,2.71374447e-05,4.71693688e-05,6.87404203e-05,8.9474038e-05
-2.95,6.94993097e-07,1.06315322e-05,2.72076115e-05,4.73135346e-05,6.90392408e-05,9.01063776e-05
-3.0,6.97859802e-07,1.06582948e-05,2.72764702e-05,4.74536539e-05,6.93243056e-05,9.0710836e-05
-3.05,7.00716248e-07,1.06847348e-05,2.73440822e-05,4.7589987e-05,6.95968942e-05,9.12878725e-05
-3.1,7.03562843e-07,1.07108637e-05,2.74105045e-05,4.77227697e-05,6.98581266e-05,9.18380609e-05
-3.15,7.06399984e-07,1.07366926e-05,2.74757907e-05,4.78522166e-05,7.0108986e-05,9.23621162e-05
-3.2,7.0922806e-07,1.07622319e-05,2.75399905e-05,4.79785235e-05,7.0350338e-05,9.28609157e-05
-3.25,7.12047455e-07,1.07874915e-05,2.76031508e-05,4.81018695e-05,7.05829478e-05,9.33355072e-05
-3.3,7.14858551e-07,1.08124809e-05,2.76653152e-05,4.82224188e-05,7.08074949e-05,9.37870965e-05
-3.35,7.17661731e-07,1.0837209e-05,2.77265249e-05,4.83403224e-05,7.10245846e-05,9.42170127e-05
-3.4,7.20457379e-07,1.08616845e-05,2.77868185e-05,4.84557197e-05,7.12347582e-05,9.46266591e-05
-3.45,7.23245887e-07,1.08859155e-05,2.78462323e-05,4.85687393e-05,7.14385016e-05,9.50174597e-05
-3.5,7.26027656e-07,1.09099099e-05,2.79048007e-05,4.86795e-05,7.16362523e-05,9.53908128e-05
-3.55,7.28803104e-07,1.09336751e-05,2.7962556e-05,4.87881124e-05,7.18284054e-05,9.57480563e-05
-3.6,7.31572662e-07,1.09572183e-05,2.80195286e-05,4.88946789e-05,7.20153191e-05,9.60904451e-05
-3.65,7.34336787e-07,1.09805465e-05,2.80757475e-05,4.89992949e-05,7.21973187e-05,9.64191401e-05
-3.7,7.37095961e-07,1.10036664e-05,2.81312399e-05,4.91020495e-05,7.23747006e-05,9.67352042e-05
-3.75,7.39850699e-07,1.10265844e-05,2.81860318e-05,4.92030257e-05,7.25477356e-05,9.70396048e-05
-3.8,7.42601555e-07,1.10493067e-05,2.82401477e-05,4.93023012e-05,7.27166718e-05,9.73332189e-05
-3.85,7.45349122e-07,1.10718396e-05,2.82936109e-05,4.93999486e-05,7.28817369e-05,9.76168402e-05
-3.9,7.48094046e-07,1.1094189e-05,2.83464435e-05,4.94960363e-05,7.30431403e-05,9.78911861e-05
-3.95,7.50837028e-07,1.11163609e-05,2.83986667e-05,4.95906283e-05,7.32010751e-05,9.81569059e-05
-4.0,7.53578829e-07,1.11383611e-05,2.84503005e-05,4.96837848e-05,7.33557198e-05,9.84145873e-05
-4.05,7.56320283e-07,1.11601956e-05,2.85013641e-05,4.97755625e-05,7.35072394e-05,9.86647637e-05
-4.1,7.59062298e-07,1.11818703e-05,2.85518758e-05,4.9866015e-05,7.36557873e-05,9.89079193e-05
-4.15,7.61805866e-07,1.12033911e-05,2.8601853e-05,4.99551925e-05,7.38015058e-05,9.9144495e-05
-4.2,7.64552075e-07,1.12247644e-05,2.86513128e-05,5.00431427e-05,7.39445272e-05,9.9374893e-05
-4.25,7.6730211e-07,1.12459964e-05,2.8700271e-05,5.01299108e-05,7.4084975e-05,9.9599481e-05
-4.3,7.70057266e-07,1.12670937e-05,2.87487435e-05,5.02155393e-05,7.42229646e-05,9.98185955e-05
-4.35,7.72818957e-07,1.12880635e-05,2.87967451e-05,5.03000686e-05,7.43586036e-05,0.000100032546
-4.4,7.75588723e-07,1.13089129e-05,2.88442905e-05,5.03835371e-05,7.44919931e-05,0.000100241615
-4.45,7.78368241e-07,1.13296498e-05,2.88913941e-05,5.04659813e-05,7.46232276e-05,0.000100446067
-4.5,7.81159332e-07,1.13502826e-05,2.89380697e-05,5.05474357e-05,7.4752396e-05,0.000100646142
-4.55,7.83963972e-07,1.13708203e-05,2.89843311e-05,5.06279333e-05,7.48795819e-05,0.000100842064
-4.6,7.86784305e-07,1.13912725e-05,2.90301921e-05,5.07075054e-05,7.50048637e-05,0.00010103404
-4.65,7.89622644e-07,1.14116497e-05,2.90756663e-05,5.07861821e-05,7.51283157e-05,0.000101222262
-4.7,7.92481492e-07,1.14319634e-05,2.91207675e-05,5.08639921e-05,7.52500078e-05,0.00010140691
-4.75,7.95363541e-07,1.14522258e-05,2.91655097e-05,5.09409626e-05,7.53700058e-05,0.00010158815
-4.8,7.98271692e-07,1.14724505e-05,2.92099073e-05,5.10171202e-05,7.54883723e-05,0.000101766137
-4.85,8.01209058e-07,1.14926521e-05,2.92539752e-05,5.10924901e-05,7.56051662e-05,0.000101941017
-4.9,8.04178977e-07,1.15128466e-05,2.92977288e-05,5.11670969e-05,7.57204437e-05,0.000102112924
-4.95,8.0718502e-07,1.15330513e-05,2.93411844e-05,5.12409642e-05,7.58342577e-05,0.000102281987
-5.0,8.10231005e-07,1.15532852e-05,2.93843592e-05,5.13141151e-05,7.59466586e-05,0.000102448325
-5.05,8.13321002e-07,1.15735688e-05,2.94272716e-05,5.13865721e-05,7.60576944e-05,0.000102612049
-5.1,8.16459345e-07,1.15939245e-05,2.94699412e-05,5.14583576e-05,7.61674107e-05,0.000102773265
-5.15,8.19650644e-07,1.16143764e-05,2.95123892e-05,5.15294933e-05,7.62758507e-05,0.000102932072
-5.2,8.22899789e-07,1.16349507e-05,2.95546385e-05,5.16000014e-05,7.63830561e-05,0.000103088564
-5.25,8.26211965e-07,1.16556758e-05,2.95967139e-05,5.16699037e-05,7.64890663e-05,0.000103242829
-5.3,8.29592658e-07,1.16765822e-05,2.96386425e-05,5.17392226e-05,7.65939194e-05,0.00010339495
-5.35,8.33047664e-07,1.16977031e-05,2.96804537e-05,5.18079808e-05,7.66976516e-05,0.000103545006
-5.4,8.36583098e-07,1.17190737e-05,2.97221797e-05,5.1876202e-05,7.68002979e-05,0.000103693071
-5.45,8.40205406e-07,1.17407322e-05,2.97638553e-05,5.19439106e-05,7.69018921e-05,0.000103839217
-5.5,8.43921366e-07,1.17627195e-05,2.9805519e-05,5.20111324e-05,7.70024668e-05,0.00010398351
-5.55,8.47738105e-07,1.17850792e-05,2.98472123e-05,5.20778943e-05,7.71020539e-05,0.000104126015
-5.6,8.51663097e-07,1.18078581e-05,2.98889807e-05,5.21442255e-05,7.72006844e-05,0.00010426679
-5.65,8.55704181e-07,1.1831106e-05,2.99308737e-05,5.22101568e-05,7.72983887e-05,0.000104405895
-5.7,8.59869559e-07,1.18548758e-05,2.99729451e-05,5.22757217e-05,7.73951971e-05,0.000104543384
-5.75,8.64167808e-07,1.18792241e-05,3.00152534e-05,5.23409564e-05,7.74911397e-05,0.00010467931
-5.8,8.68607885e-07,1.19042105e-05,3.00578619e-05,5.24059001e-05,7.75862466e-05,0.000104813721
-5.85,8.73199134e-07,1.19298984e-05,3.01008393e-05,5.24705956e-05,7.76805485e-05,0.000104946667
-5.9,8.77951293e-07,1.19563549e-05,3.01442597e-05,5.25350896e-05,7.77740767e-05,0.000105078194
-5.95,8.82874494e-07,1.19836508e-05,3.01882031e-05,5.25994331e-05,7.78668633e-05,0.000105208344
-6.0,8.87979277e-07,1.20118607e-05,3.02327558e-05,5.26636819e-05,7.7958942e-05,0.000105337162
-6.05,8.93276587e-07,1.20410632e-05,3.02780103e-05,5.27278969e-05,7.80503481e-05,0.000105464689
-6.1,8.98777785e-07,1.20713409e-05,3.03240661e-05,5.27921448e-05,7.81411188e-05,0.000105590964
-6.15,9.04494646e-07,1.21027806e-05,3.03710295e-05,5.28564984e-05,7.82312939e-05,0.000105716026
-6.2,9.10439368e-07,1.21354732e-05,3.04190145e-05,5.29210372e-05,7.83209161e-05,0.000105839916
-6.25,9.16624575e-07,1.21695139e-05,3.04681424e-05,5.29858479e-05,7.84100315e-05,0.000105962669
-6.3,9.23063315e-07,1.22050022e-05,3.05185426e-05,5.30510245e-05,7.84986899e-05,0.000106084325
-6.35,9.29769071e-07,1.22420422e-05,3.05703527e-05,5.31166697e-05,7.85869457e-05,0.000106204922
-6.4,9.36755758e-07,1.22807422e-05,3.06237187e-05,5.31828946e-05,7.86748581e-05,0.000106324499
-6.45,9.44037724e-07,1.2321215e-05,3.06787954e-05,5.32498194e-05,7.87624921e-05,0.000106443094
-6.5,9.51629759e-07,1.23635783e-05,3.07357465e-05,5.33175743e-05,7.88499184e-05,0.00010656075
-6.55,9.59547088e-07,1.2407954e-05,3.07947449e-05,5.33862996e-05,7.89372149e-05,0.000106677508
-6.6,9.67805378e-07,1.24544687e-05,3.0855973e-05,5.34561464e-05,7.90244666e-05,0.000106793414
