vds,vb1,vb2,vb3,vb4,vb5,vb6
0.0,-1.1122076800000001e-31,3.35162331e-30,-2.70096414e-21,-5.0021983300000006e-21,-1.1545655e-29,-4.31625861e-21
-0.05,3.57469836e-06,2.7108526e-05,4.36402062e-05,5.59495175e-05,6.55144598e-05,7.31854437e-05
-0.1,5.82093138e-06,5.26357336e-05,8.58343077e-05,0.000110580451,0.000129819539,0.000145254199
-0.15,6.91843834e-06,7.65952084e-05,0.000126592215,0.000163900482,0.000192921428,0.000216211396
-0.2,7.32652878e-06,9.90005221e-05,0.000165923805,0.000215917273,0.0002548263,0.000286062156
-0.25,7.50415057e-06,0.000119865256,0.000203838914,0.000266638458,0.000315540313,0.000354811585
-0.3,7.62139875e-06,0.000139203047,0.000240347344,0.000316071646,0.000375069605,0.000422464777
-0.35,7.71817592e-06,0.000157027661,0.00027545886,0.00036422442,0.000433420296,0.000489026811
-0.4,7.80514695e-06,0.000173353115,0.000309183194,0.000411104338,0.000490598489,0.000554502755
-0.45,7.88611097e-06,0.000188193879,0.000341530045,0.000456718932,0.000546610268,0.000618897661
-0.5,7.96281302e-06,0.000201565241,0.000372509086,0.000501075709,0.000601461699,0.000682216568
-0.55,8.03622524e-06,0.000213483977,0.000402129966,0.000544182148,0.000655158829,0.000744464502
-0.6,8.10696839e-06,0.000223969625,0.000430402314,0.000586045704,0.000707707685,0.000805646473
-0.65,8.17547767e-06,0.000233047028,0.000457335755,0.000626673807,0.000759114276,0.000865767479
-0.7,8.24207804e-06,0.000240751455,0.000482939914,0.000666073862,0.000809384592,0.000924832501
-0.75,8.30702292e-06,0.000247138738,0.000507224438,0.000704253248,0.000858524605,0.000982846508
-0.8,8.37051618e-06,0.000252303044,0.000530199016,0.000741219324,0.000906540264,0.00103981445
-0.85,8.4327255e-06,0.000256398428,0.000551873421,0.000776979423,0.000953437502,0.00109574127
-0.9,8.49379127e-06,0.00025964135,0.000572257553,0.00081154086,0.000999222232,0.00115063189
-0.95,8.5538326e-06,0.000262268347,0.000591361524,0.000844910928,0.00104390035,0.00120449122
-1.0,8.61295168e-06,0.000264476038,0.000609195776,0.000877096907,0.00108747772,0.00125732415
-1.05,8.671237e-06,0.00026639742,0.000625771272,0.000908106061,0.00112996022,0.00130913556
-1.1,8.72876578e-06,0.000268114396,0.000641099803,0.000937945644,0.00117135367,0.00135993031
-1.15,8.78560588e-06,0.000269677423,0.000655194502,0.000966622907,0.00121166389,0.00140971326
-1.2,8.84181728e-06,0.00027111912,0.000668070709,0.0009941451,0.00125089669,0.00145848923
-1.25,8.89745329e-06,0.000272461859,0.000679747449,0.00102051949,0.00128905785,0.00150626305
-1.3,8.9525615e-06,0.000273721821,0.000690249973,0.00104575335,0.00132615314,0.00155303952
-1.35,9.00718461e-06,0.000274911219,0.000699613908,0.00106985401,0.00136218832,0.00159882342
-1.4,9.06136107e-06,0.000276039576,0.000707891423,0.00109282885,0.00139716911,0.00164361955
-1.45,9.11512563e-06,0.000277114515,0.000715158355,0.00111468534,0.00143110125,0.00168743264
-1.5,9.1685098e-06,0.000278142257,0.000721518159,0.00113543109,0.00146399045,0.00173026746
-1.55,9.22154225e-06,0.000279127964,0.000727096485,0.00115507387,0.0014958424,0.00177212874
-1.6,9.27424912e-06,0.000280075976,0.000732025451,0.00117362178,0.0015266628,0.00181302118
-1.65,9.32665435e-06,0.00028098998,0.000736426245,0.00119108331,0.00155645733,0.0018529495
-1.7,9.3787799e-06,0.000281873144,0.000740399442,0.0012074676,0.00158523166,0.0018919184
-1.75,9.43064593e-06,0.000282728207,0.000744024017,0.00122278472,0.00161299148,0.00192993254
-1.8,9.48227105e-06,0.000283557558,0.000747360772,0.00123704628,0.00163974246,0.00196699659
-1.85,9.53367243e-06,0.000284363291,0.000750456588,0.00125026623,0.00166549027,0.00200311521
-1.9,9.58486596e-06,0.000285147257,0.000753348025,0.00126246226,0.00169024061,0.00203829304
-1.95,9.63586639e-06,0.000285911095,0.000756064017,0.00127365803,0.00171399918,0.0020725347
-2.0,9.68668739e-06,0.000286656269,0.000758627809,0.00128388622,0.0017367717,0.00210584481
-2.05,9.73734172e-06,0.000287384087,0.000761058336,0.00129319216,0.00175856391,0.00213822799
-2.1,9.78784123e-06,0.000288095727,0.000763371222,0.0013016366,0.0017793816,0.00216968881
-2.15,9.83819702e-06,0.000288792251,0.000765579506,0.00130929519,0.00179923056,0.00220023185
-2.2,9.88841945e-06,0.000289474621,0.000767694183,0.00131625367,0.00181811667,0.00222986169
-2.25,9.93851821e-06,0.00029014371,0.000769724605,0.00132260021,0.00183604581,0.00225858287
-2.3,9.98850242e-06,0.000290800316,0.000771678797,0.00132841834,0.00185302398,0.00228639993
-2.35,1.00383806e-05,0.000291445164,0.000773563696,0.00133378259,0.00186905728,0.00231331735
-2.4,1.00881608e-05,0.000292078923,0.000775385336,0.00133875693,0.00188415211,0.00233933963
-2.45,1.01378506e-05,0.000292702204,0.000777149001,0.00134339516,0.00189831557,0.0023644712
-2.5,1.01874572e-05,0.00029331557,0.000778859343,0.00134774208,0.00191155632,0.00238871643
-2.55,1.02369872e-05,0.000293919543,0.000780520479,0.00135183494,0.00192388644,0.00241207961
-2.6,1.02864471e-05,0.000294514603,0.00078213607,0.00135570478,0.00193532434,0.0024345649
-2.65,1.03358429e-05,0.000295101194,0.000783709385,0.0013593776,0.0019458987,0.00245617631
-2.7,1.03851804e-05,0.000295679732,0.000785243357,0.0013628753,0.00195565154,0.00247691754
-2.75,1.04344651e-05,0.000296250601,0.000786740625,0.00136621645,0.00196463881,0.00249679194
-2.8,1.04837023e-05,0.000296814158,0.000788203574,0.00136941691,0.0019729271,0.00251580231
-2.85,1.0532897e-05,0.000297370739,0.000789634366,0.00137249031,0.00198058805,0.00253395066
-2.9,1.05820541e-05,0.000297920655,0.000791034965,0.00137544842,0.0019876927,0.00255123799
-2.95,1.06311785e-05,0.0002984642,0.000792407165,0.00137830149,0.0019943074,0.00256766406
-3.0,1.06802746e-05,0.000299001646,0.000793752602,0.00138105849,0.00200049167,0.00258322745
-3.05,1.07293472e-05,0.000299533252,0.000795072779,0.0013837273,0.00200629758,0.00259792609
-3.1,1.07784008e-05,0.00030005926,0.000796369077,0.00138631488,0.00201177005,0.00261175908
-3.15,1.082744e-05,0.000300579897,0.000797642767,0.00138882741,0.00201694757,0.00262472981
-3.2,1.08764695e-05,0.000301095379,0.000798895022,0.0013912704,0.00202186303,0.00263685038
-3.25,1.0925494e-05,0.000301605907,0.000800126928,0.00139364878,0.0020265446,0.0026481457
-3.3,1.09745186e-05,0.000302111675,0.000801339491,0.00139596699,0.00203101644,0.00265865525
-3.35,1.10235486e-05,0.000302612864,0.000802533645,0.00139822901,0.00203529935,0.00266843143
-3.4,1.10725894e-05,0.000303109647,0.000803710259,0.00140043848,0.00203941135,0.00267753516
-3.45,1.11216469e-05,0.000303602189,0.000804870143,0.00140259866,0.00204336811,0.00268603067
-3.5,1.11707277e-05,0.000304090649,0.000806014052,0.00140471254,0.00204718327,0.00269398103
-3.55,1.12198387e-05,0.000304575177,0.000807142693,0.00140678285,0.00205086886,0.00270144521
-3.6,1.12689875e-05,0.00030505592,0.000808256726,0.00140881208,0.00205443544,0.0027084766
-3.65,1.13181824e-05,0.00030553302,0.000809356773,0.00141080252,0.00205789238,0.00271512259
-3.7,1.13674328e-05,0.000306006613,0.000810443415,0.00141275628,0.002061248,0.0027214247
-3.75,1.14167488e-05,0.000306476837,0.0008115172,0.00141467529,0.00206450973,0.00272741911
-3.8,1.14661416e-05,0.000306943825,0.000812578644,0.00141656134,0.00206768423,0.00273313725
-3.85,1.15156238e-05,0.000307407713,0.000813628233,0.0014184161,0.00207077748,0.00273860645
-3.9,1.15652092e-05,0.000307868635,0.000814666428,0.0014202411,0.00207379487,0.00274385048
-3.95,1.16149131e-05,0.00030832673,0.000815693664,0.00142203776,0.00207674131,0.0027488901
-4.0,1.16647524e-05,0.00030878214,0.000816710355,0.00142380742,0.00207962122,0.00275374349
-4.05,1.17147458e-05,0.000309235013,0.000817716896,0.00142555132,0.00208243864,0.00275842662
-4.1,1.1764914e-05,0.000309685505,0.000818713663,0.0014272706,0.00208519725,0.00276295357
-4.15,1.18152796e-05,0.000310133781,0.000819701016,0.00142896636,0.00208790044,0.00276733682
-4.2,1.18658676e-05,0.000310580017,0.000820679304,0.0014306396,0.00209055129,0.00277158745
-4.25,1.19167054e-05,0.000311024403,0.000821648863,0.00143229128,0.00209315265,0.00277571536
-4.3,1.19678229e-05,0.000311467145,0.000822610021,0.00143392229,0.00209570715,0.00277972939
-4.35,1.20192528e-05,0.000311908466,0.000823563102,0.00143553346,0.0020982172,0.0027836375
-4.4,1.20710308e-05,0.000312348612,0.000824508425,0.00143712559,0.00210068505,0.00278744684
-4.45,1.21231956e-05,0.00031278785,0.00082544631,0.00143869943,0.00210311278,0.00279116391
-4.5,1.21757893e-05,0.000313226474,0.000826377078,0.00144025567,0.00210550231,0.00279479456
-4.55,1.22288575e-05,0.00031366481,0.000827301058,0.001441795,0.00210785544,0.00279834414
-4.6,1.22824495e-05,0.000314103211,0.000828218591,0.00144331805,0.00211017385,0.00280181752
-4.65,1.23366184e-05,0.00031454207,0.000829130029,0.00144482542,0.0021124591,0.00280521915
-4.7,1.23914212e-05,0.000314981817,0.000830035744,0.0014463177,0.00211471264,0.0028085531
-4.75,1.24469196e-05,0.000315422925,0.000830936133,0.00144779545,0.00211693585,0.00281182311
-4.8,1.25031792e-05,0.000315865911,0.000831831619,0.00144925921,0.00211913001,0.00281503264
-4.85,1.25602707e-05,0.000316311342,0.00083272266,0.0014507095,0.00212129632,0.00281818486
-4.9,1.26182692e-05,0.000316759839,0.000833609754,0.00145214684,0.00212343592,0.00282128272
-4.95,1.2677255e-05,0.000317212077,0.000834493443,0.00145357174,0.00212554987,0.00282432892
-5.0,1.27373135e-05,0.000317668794,0.000835374324,0.00145498471,0.00212763918,0.002827326
-5.05,1.27985356e-05,0.00031813079,0.00083625305,0.00145638626,0.00212970481,0.0028302763
-5.1,1.28610176e-05,0.000318598933,0.000837130342,0.00145777692,0.00213174766,0.002833182
-5.15,1.29248615e-05,0.000319074163,0.000838006994,0.00145915721,0.00213376859,0.00283604515
-5.2,1.29901752e-05,0.000319557494,0.000838883883,0.0014605277,0.00213576842,0.00283886764
-5.25,1.30570726e-05,0.000320050021,0.000839761973,0.00146188897,0.00213774794,0.00284165126
-5.3,1.31256739e-05,0.00032055292,0.000840642328,0.00146324166,0.0021397079,0.00284439767
-5.35,1.31961056e-05,0.000321067455,0.000841526118,0.00146458644,0.00214164903,0.00284710844
-5.4,1.32685008e-05,0.000321594978,0.000842414629,0.00146592402,0.00214357205,0.00284978503
-5.45,1.3342999e-05,0.000322136936,0.000843309272,0.0014672552,0.00214547765,0.00285242883
-5.5,1.34197469e-05,0.000322694874,0.000844211592,0.00146858084,0.00214736652,0.00285504114
-5.55,1.34988978e-05,0.000323270436,0.000845123276,0.00146990189,0.00214923936,0.0028576232
-5.6,1.35806124e-05,0.000323865369,0.000846046165,0.00147121939,0.00215109687,0.00286017618
-5.65,1.36650583e-05,0.000324481531,0.000846982263,0.00147253449,0.00215293975,0.00286270117
-5.7,1.37524107e-05,0.000325120886,0.000847933745,0.00147384847,0.00215476875,0.00286519923
-5.75,1.38428521e-05,0.000325785513,0.000848902969,0.00147516273,0.00215658463,0.00286767138
-5.8,1.39365727e-05,0.000326477607,0.000849892484,0.00147647883,0.00215838822,0.00287011857
-5.85,1.40337701e-05,0.000327199482,0.000850905041,0.00147779848,0.00216018036,0.00287254173
-5.9,1.41346499e-05,0.000327953573,0.0008519436,0.00147912359,0.00216196201,0.00287494178
-5.95,1.42394255e-05,0.000328742439,0.000853011342,0.00148045622,0.00216373417,0.00287731959
-6.0,1.43483184e-05,0.000329568765,0.000854111678,0.00148179868,0.00216549795,0.00287967603
-6.05,1.44615578e-05,0.000330435364,0.000855248256,0.00148315347,0.00216725455,0.00288201197
-6.1,1.45793813e-05,0.000331345179,0.000856424972,0.00148452336,0.00216900533,0.00288432827
-6.15,1.47020345e-05,0.000332301286,0.000857645977,0.00148591136,0.00217075174,0.00288662582
-6.2,1.48297714e-05,0.000333306892,0.000858915688,0.00148732075,0.00217249543,0.00288890552
-6.25,1.49628541e-05,0.000334365342,0.000860238793,0.00148875509,0.0021742382,0.00289116832
-6.3,1.51015532e-05,0.000335480116,0.000861620258,0.00149021826,0.00217598205,0.00289341521
-6.35,1.52461476e-05,0.000336654831,0.000863065339,0.00149171447,0.0021777292,0.00289564723
-6.4,1.53969248e-05,0.000337893241,0.000864579584,0.00149324825,0.0021794821,0.00289786552
-6.45,1.55541806e-05,0.000339199242,0.000866168844,0.00149482448,0.00218124346,0.00290007131
-6.5,1.57182192e-05,0.000340576868,0.000867839275,0.00149644844,0.00218301626,0.00290226591
-6.55,1.58893537e-05,0.000342030292,0.000869597345,0.00149812577,0.00218480379,0.00290445081
-6.6,1.60679053e-05,0.000343563828,0.000871449841,0.00149986251,0.00218660966,0.00290662759
