vds,vb1,vb2,vb3,vb4,vb5,vb6
0.0,2.84163267e-32,6.87614549e-30,-1.3376177700000001e-21,-2.4798975500000002e-21,2.11111539e-30,-2.14363291e-21
-0.05,1.77062021e-06,1.34128041e-05,2.16211132e-05,2.77523716e-05,3.25310838e-05,3.63751875e-05
-0.1,2.88440083e-06,2.60431162e-05,4.25257873e-05,5.48509324e-05,6.44621371e-05,7.21960742e-05
-0.15,3.42962218e-06,3.78976542e-05,6.27189225e-05,8.12994778e-05,9.57962137e-05,0.000107465188
-0.2,3.63256888e-06,4.89831292e-05,8.22054022e-05,0.000107101792,0.00012653636,0.000142185051
-0.25,3.72071935e-06,5.93062568e-05,0.00010099009,0.000132261647,0.000156685613,0.000176358179
-0.3,3.77882996e-06,6.88737808e-05,0.000119077833,0.000156782801,0.000186247002,0.000209987081
-0.35,3.82679906e-06,7.76925091e-05,0.000136473459,0.000180669001,0.000215223547,0.000243074262
-0.4,3.86992799e-06,8.57693735e-05,0.00015318178,0.000203923981,0.000243618259,0.000275622216
-0.45,3.91009619e-06,9.31115322e-05,0.000169207593,0.000226551462,0.000271434141,0.000307633435
-0.5,3.9481629e-06,9.97265501e-05,0.00018455568,0.000248555153,0.000298674185,0.000339110401
-0.55,3.98460512e-06,0.000105622732,0.000199230813,0.00026993875,0.000325341376,0.000370055591
-0.6,4.01972692e-06,0.000110809756,0.000213237754,0.000290705937,0.000351438689,0.000400471475
-0.65,4.05374138e-06,0.000115299941,0.000226581264,0.000310860384,0.00037696909,0.000430360516
-0.7,4.08680768e-06,0.000119110787,0.000239266104,0.000330405751,0.000401935536,0.000459725169
-0.75,4.11905012e-06,0.00012227002,0.000251297045,0.000349345686,0.000426340972,0.000488567883
-0.8,4.15056883e-06,0.00012482442,0.000262678882,0.000367683823,0.000450188338,0.000516891101
-0.85,4.18144629e-06,0.000126850519,0.000273416453,0.000385423789,0.000473480561,0.000544697256
-0.9,4.21175168e-06,0.000128455823,0.000283514659,0.000402569198,0.000496220561,0.000571988777
-0.95,4.24154377e-06,0.000129757695,0.00029297851,0.000419123657,0.000518411248,0.000598768083
-1.0,4.27087307e-06,0.000130853499,0.000301813185,0.000435090763,0.000540055522,0.000625037588
-1.05,4.29978338e-06,0.000131808865,0.000310024125,0.000450474108,0.000561156275,0.000650799698
-1.1,4.32831297e-06,0.000132664036,0.000317617193,0.000465277281,0.00058171639,0.00067605681
-1.15,4.35649551e-06,0.0001334437,0.000324598933,0.000479503866,0.000601738741,0.000700811317
-1.2,4.38436081e-06,0.000134163769,0.000330977007,0.000493157452,0.000621226194,0.000725065603
-1.25,4.41193536e-06,0.000134835137,0.000336760947,0.000506241633,0.000640181605,0.000748822044
-1.3,4.43924289e-06,0.000135465685,0.00034196343,0.000518760015,0.000658607826,0.000772083011
-1.35,4.46630466e-06,0.000136061364,0.000346602378,0.000530716227,0.000676507697,0.000794850867
-1.4,4.49313986e-06,0.000136626823,0.000350704038,0.000542113927,0.000693884055,0.000817127966
-1.45,4.51976584e-06,0.000137165788,0.000354306519,0.000552956824,0.000710739727,0.000838916659
-1.5,4.54619834e-06,0.000137681304,0.000357461668,0.000563248695,0.000727077538,0.000860219288
-1.55,4.57245171e-06,0.000138175906,0.000360232199,0.000572993425,0.000742900305,0.000881038187
-1.6,4.59853902e-06,0.000138651725,0.000362683721,0.000582195047,0.000758210843,0.000901375687
-1.65,4.62447228e-06,0.000139110579,0.000364876069,0.000590857822,0.000773011963,0.000921234109
-1.7,4.65026247e-06,0.000139554028,0.000366858636,0.000598986349,0.000787306476,0.000940615769
-1.75,4.67591972e-06,0.000139983425,0.000368670035,0.000606585742,0.000801097193,0.000959522979
-1.8,4.70145335e-06,0.000140399953,0.000370339915,0.000613661913,0.000814386926,0.000977958041
-1.85,4.726872e-06,0.000140804649,0.00037189111,0.000620222026,0.000827178495,0.000995923254
-1.9,4.75218364e-06,0.00014119843,0.00037334143,0.000626275216,0.000839474724,0.00101342091
-1.95,4.77739569e-06,0.00014158211,0.000374704982,0.000631833696,0.000851278454,0.0010304533
-2.0,4.80251502e-06,0.000141956417,0.000375993118,0.000636914283,0.000862592536,0.0010470227
-2.05,4.82754805e-06,0.000142322001,0.000377215099,0.000641540126,0.000873419848,0.00106313139
-2.1,4.85250074e-06,0.00014267945,0.000378378584,0.000645741902,0.000883763292,0.00107878165
-2.15,4.87737869e-06,0.000143029292,0.000379489974,0.000649557404,0.00089362581,0.00109397573
-2.2,4.9021871e-06,0.000143372008,0.000380554678,0.000653029043,0.00090301039,0.0011087159
-2.25,4.92693088e-06,0.000143708034,0.000381577305,0.00065620012,0.000911920082,0.00112300442
-2.3,4.9516146e-06,0.000144037768,0.000382561817,0.000659111461,0.000920358027,0.00113684354
-2.35,4.97624258e-06,0.000144361572,0.000383511641,0.000661799391,0.000928327504,0.00115023549
-2.4,5.00081887e-06,0.000144679782,0.000384429767,0.000664295073,0.000935832031,0.00116318251
-2.45,5.02534729e-06,0.000144992703,0.000385318813,0.000666624717,0.00094287559,0.00117568681
-2.5,5.04983144e-06,0.000145300619,0.000386181089,0.000668810178,0.000949463074,0.00118775058
-2.55,5.07427474e-06,0.000145603788,0.000387018642,0.000670869654,0.000955601147,0.001199376
-2.6,5.0986804e-06,0.000145902454,0.000387833294,0.000672818339,0.000961299631,0.00121056517
-2.65,5.12305149e-06,0.000146196838,0.000388626672,0.000674668981,0.000966573247,0.00122132015
-2.7,5.14739093e-06,0.00014648715,0.000389400239,0.000676432341,0.000971443049,0.00123164287
-2.75,5.17170148e-06,0.000146773582,0.000390155313,0.000678117561,0.000975936592,0.00124153515
-2.8,5.19598581e-06,0.000147056314,0.000390893085,0.000679732463,0.000980086406,0.00125099854
-2.85,5.22024648e-06,0.000147335515,0.000391614635,0.000681283774,0.000983927361,0.00126003432
-2.9,5.24448595e-06,0.000147611341,0.000392320946,0.000682777326,0.000987493996,0.00126864332
-2.95,5.26870663e-06,0.000147883939,0.000393012917,0.000684218194,0.000990818589,0.0012768259
-3.0,5.29291087e-06,0.000148153448,0.000393691367,0.000685610827,0.000993930137,0.00128458193
-3.05,5.31710097e-06,0.000148419997,0.00039435705,0.000686959141,0.000996854058,0.00129191107
-3.1,5.34127924e-06,0.000148683708,0.000395010659,0.000688266598,0.000999612325,0.00129881357
-3.15,5.36544799e-06,0.000148944696,0.000395652832,0.000689536279,0.0010022238,0.00130529173
-3.2,5.38960955e-06,0.000149203069,0.000396284158,0.000690770929,0.00100470464,0.00131135188
-3.25,5.41376635e-06,0.000149458929,0.000396905182,0.000691973012,0.00100706871,0.00131700636
-3.3,5.43792086e-06,0.000149712374,0.000397516411,0.000693144741,0.00100932792,0.00132227434
-3.35,5.4620757e-06,0.000149963494,0.000398118315,0.000694288114,0.00101149255,0.00132718114
-3.4,5.48623363e-06,0.000150212378,0.00039871133,0.000695404941,0.00101357151,0.00133175622
-3.45,5.51039761e-06,0.000150459108,0.000399295865,0.000696496864,0.00101557256,0.00133603068
-3.5,5.53457081e-06,0.000150703764,0.0003998723,0.00069756538,0.0010175025,0.00134003514
-3.55,5.55875669e-06,0.000150946423,0.000400440991,0.000698611857,0.00101936727,0.00134379835
-3.6,5.58295902e-06,0.000151187157,0.000401002271,0.000699637546,0.00102117216,0.00134734638
-3.65,5.60718193e-06,0.000151426039,0.000401556454,0.000700643598,0.00102292181,0.00135070245
-3.7,5.63142997e-06,0.000151663139,0.000402103833,0.000701631069,0.00102462039,0.00135388695
-3.75,5.65570817e-06,0.000151898523,0.000402644684,0.000702600935,0.0010262716,0.00135691769
-3.8,5.68002208e-06,0.00015213226,0.000403179267,0.000703554097,0.00102787878,0.00135981017
-3.85,5.70437785e-06,0.000152364418,0.000403707829,0.000704491389,0.00102944491,0.00136257791
-3.9,5.72878227e-06,0.000152595064,0.000404230602,0.000705413587,0.0010309727,0.00136523268
-3.95,5.75324286e-06,0.000152824268,0.000404747806,0.000706321408,0.00103246461,0.00136778477
-4.0,5.77776795e-06,0.0001530521,0.000405259649,0.000707215525,0.00103392285,0.00137024321
-4.05,5.80236672e-06,0.000153278636,0.000405766332,0.00070809656,0.00103534945,0.00137261595
-4.1,5.82704928e-06,0.000153503951,0.000406268044,0.000708965097,0.00103674626,0.00137491
-4.15,5.85182679e-06,0.000153728129,0.000406764968,0.000709821682,0.00103811499,0.0013771316
-4.2,5.87671149e-06,0.000153951256,0.000407257278,0.000710666828,0.00103945718,0.00137928626
-4.25,5.9017168e-06,0.000154173428,0.000407745146,0.000711501012,0.00104077427,0.00138137895
-4.3,5.92685742e-06,0.000154394746,0.000408228736,0.000712324687,0.00104206759,0.00138341408
-4.35,5.9521494e-06,0.00015461532,0.000408708212,0.000713138276,0.00104333834,0.00138539564
-4.4,5.97761023e-06,0.000154835272,0.000409183735,0.000713942181,0.00104458766,0.00138732723
-4.45,6.00325892e-06,0.000155054734,0.000409655464,0.000714736777,0.00104581661,0.00138921209
-4.5,6.02911614e-06,0.000155273851,0.000410123562,0.000715522424,0.00104702615,0.00139105317
-4.55,6.05520422e-06,0.000155492783,0.000410588193,0.000716299459,0.00104821719,0.00139285316
-4.6,6.08154734e-06,0.000155711705,0.000411049528,0.000717068206,0.00104939057,0.00139461451
-4.65,6.10817155e-06,0.000155930809,0.000411507743,0.000717828972,0.00105054709,0.00139633945
-4.7,6.1351049e-06,0.000156150309,0.000411963024,0.00071858205,0.00105168748,0.00139803003
-4.75,6.16237752e-06,0.000156370435,0.000412415568,0.000719327724,0.00105281244,0.00139968816
-4.8,6.19002172e-06,0.000156591444,0.000412865585,0.000720066267,0.00105392261,0.00140131555
-4.85,6.21807207e-06,0.000156813613,0.000413313302,0.000720797945,0.0010550186,0.00140291382
-4.9,6.24656552e-06,0.000157037248,0.000413758967,0.000721523019,0.001056101,0.00140448445
-4.95,6.27554143e-06,0.000157262682,0.000414202848,0.000722241744,0.00105717032,0.00140602882
-5.0,6.30504175e-06,0.000157490276,0.000414645239,0.000722954378,0.0010582271,0.00140754819
-5.05,6.33511101e-06,0.000157720424,0.000415086463,0.000723661177,0.00105927181,0.00140904376
-5.1,6.36579649e-06,0.000157953554,0.000415526877,0.000724362403,0.00106030491,0.00141051663
-5.15,6.39714825e-06,0.000158190127,0.000415966871,0.000725058326,0.00106132684,0.00141196783
-5.2,6.42921926e-06,0.000158430643,0.000416406878,0.000725749225,0.001062338,0.00141339832
-5.25,6.46206543e-06,0.000158675638,0.000416847373,0.000726435394,0.00106333881,0.00141480901
-5.3,6.49574573e-06,0.000158925693,0.000417288879,0.000727117144,0.00106432963,0.00141620073
-5.35,6.53032226e-06,0.000159181428,0.000417731974,0.00072779481,0.00106531085,0.00141757429
-5.4,6.56586032e-06,0.000159443509,0.00041817729,0.000728468751,0.00106628282,0.00141893043
-5.45,6.60242847e-06,0.000159712647,0.000418625521,0.000729139358,0.00106724589,0.00142026984
-5.5,6.64009864e-06,0.000159989603,0.000419077427,0.000729807059,0.00106820041,0.00142159319
-5.55,6.67894616e-06,0.000160275184,0.000419533839,0.000730472321,0.00106914674,0.00142290111
-5.6,6.71904985e-06,0.000160570252,0.000419995663,0.000731135661,0.00107008521,0.00142419419
-5.65,6.76049206e-06,0.00016087572,0.000420463884,0.000731797646,0.0010710162,0.00142547298
-5.7,6.80335875e-06,0.000161192554,0.000420939573,0.000732458905,0.00107194007,0.00142673802
-5.75,6.84773955e-06,0.000161521778,0.00042142389,0.00073312013,0.0010728572,0.00142798983
-5.8,6.89372781e-06,0.000161864473,0.00042191809,0.000733782088,0.001073768,0.00142922889
-5.85,6.94142062e-06,0.000162221778,0.000422423526,0.000734445624,0.00107467291,0.00143045567
-5.9,6.99091891e-06,0.00016259489,0.000422941656,0.00073511167,0.00107557238,0.00143167064
-5.95,7.04232749e-06,0.000162985071,0.000423474044,0.000735781252,0.00107646692,0.00143287423
-6.0,7.09575503e-06,0.000163393643,0.00042402237,0.000736455499,0.00107735707,0.0014340669
-6.05,7.15131419e-06,0.000163821991,0.000424588431,0.000737135647,0.00107824344,0.00143524906
-6.1,7.2091216e-06,0.000164271564,0.000425174143,0.000737823054,0.00107912668,0.00143642117
-6.15,7.26929789e-06,0.000164743878,0.000425781553,0.0007385192,0.00108000753,0.00143758366
-6.2,7.33196776e-06,0.000165240513,0.000426412833,0.0007392257,0.00108088679,0.00143873699
-6.25,7.39725998e-06,0.000165763117,0.000427070295,0.000739944312,0.00108176535,0.00143988163
-6.3,7.46530742e-06,0.000166313404,0.000427756383,0.000740676944,0.00108264419,0.00144101808
-6.35,7.53624709e-06,0.000166893156,0.000428473688,0.000741425661,0.00108352441,0.00144214685
-6.4,7.61022011e-06,0.000167504226,0.000429224943,0.000742192697,0.00108440721,0.00144326852
-6.45,7.68737179e-06,0.000168148532,0.000430013031,0.000742980459,0.00108529392,0.00144438368
-6.5,7.76785162e-06,0.000168828062,0.000430840986,0.000743791538,0.00108618602,0.00144549301
-6.55,7.85181324e-06,0.000169544875,0.000431711997,0.000744628715,0.00108708512,0.00144659721
-6.6,7.93941452e-06,0.000170301098,0.00043262941,0.000745494971,0.00108799299,0.00144769709
