vds,vb1,vb2,vb3,vb4,vb5,vb6
0.0,-4.88517828e-33,-1.58846837e-21,-1.48647557e-21,-2.75461885e-21,-1.2455548e-29,3.5330811e-19
-0.05,2.11885458e-06,1.49855804e-05,2.38744972e-05,3.04447601e-05,3.55319668e-05,3.96076554e-05
-0.1,3.49863317e-06,2.91063175e-05,4.69588024e-05,6.01697874e-05,7.0404421e-05,7.86067642e-05
-0.15,4.2224605e-06,4.23704789e-05,6.92588676e-05,8.91796387e-05,0.000104620996,0.000117000313
-0.2,4.51620604e-06,5.47863136e-05,9.0780622e-05,0.000117478858,0.000138185317,0.000154791282
-0.25,4.64805992e-06,6.6362062e-05,0.000111529969,0.000145071971,0.000171100998,0.000191982645
-0.3,4.73596308e-06,7.71059812e-05,0.000131512787,0.00017196349,0.000203371643,0.000228577365
-0.35,4.80944344e-06,8.70263819e-05,0.000150734932,0.000198157911,0.000235000843,0.000264578401
-0.4,4.87624766e-06,9.61316908e-05,0.000169202234,0.000223659712,0.000265992182,0.000299988703
-0.45,4.93904493e-06,0.000104430554,0.000186920502,0.000248473355,0.00029634923,0.000334811211
-0.5,4.99903e-06,0.000111932022,0.000203895527,0.000272603288,0.000326075546,0.000369048861
-0.55,5.05685823e-06,0.00011864588,0.000220133079,0.00029605394,0.000355174678,0.000402704577
-0.6,5.11294502e-06,0.000124583279,0.000235638914,0.000318829725,0.000383650164,0.000435781277
-0.65,5.16758082e-06,0.000129757977,0.00025041878,0.000340935038,0.000411505529,0.00046828187
-0.7,5.22098253e-06,0.000134188816,0.00026447842,0.000362374263,0.000438744284,0.000500209256
-0.75,5.27331947e-06,0.000137904626,0.000277823582,0.000383151762,0.000465369932,0.000531566326
-0.8,5.32472803e-06,0.000140952942,0.000290460036,0.000403271886,0.000491385963,0.000562355964
-0.85,5.37532059e-06,0.000143411291,0.000302393586,0.00042273897,0.000516795852,0.000592581043
-0.9,5.42519136e-06,0.000145390625,0.000313630103,0.000441557335,0.000541603067,0.000622244428
-0.95,5.47442035e-06,0.000147016375,0.000324175567,0.000459731288,0.00056581106,0.000651348976
-1.0,5.52307631e-06,0.000148396774,0.000334036128,0.000477265125,0.000589423273,0.000679897533
-1.05,5.57121878e-06,0.000149607259,0.000343218208,0.000494163133,0.000612443136,0.000707892937
-1.1,5.6188998e-06,0.000150695206,0.000351728667,0.000510429587,0.000634874066,0.000735338017
-1.15,5.66616509e-06,0.000151690166,0.000359575067,0.000526068763,0.000656719472,0.000762235593
-1.2,5.71305508e-06,0.000152611423,0.000366766132,0.000541084928,0.000677982748,0.000788588475
-1.25,5.75960575e-06,0.000153472306,0.000373312516,0.000555482358,0.00069866728,0.000814399464
-1.3,5.80584919e-06,0.000154282525,0.00037922812,0.000569265335,0.00071877644,0.000839671354
-1.35,5.85181422e-06,0.00015504945,0.000384532234,0.000582438157,0.000738313594,0.000864406926
-1.4,5.89752679e-06,0.000155778855,0.000389252681,0.000595005154,0.000757282095,0.000888608957
-1.45,5.94301033e-06,0.000156475381,0.000393429402,0.000606970695,0.000775685288,0.000912280211
-1.5,5.98828613e-06,0.000157142828,0.000397116345,0.000618339219,0.00079352651,0.000935423446
-1.55,6.0333735e-06,0.000157784355,0.000400378637,0.000629115259,0.000810809087,0.000958041409
-1.6,6.07829012e-06,0.000158402627,0.000403284712,0.000639303491,0.00082753634,0.000980136841
-1.65,6.1230521e-06,0.00015899991,0.000405897721,0.000648908799,0.000843711585,0.00100171247
-1.7,6.16767426e-06,0.000159578153,0.0004082707,0.000657936385,0.000859338129,0.00102277103
-1.75,6.21217021e-06,0.000160139044,0.000410445934,0.000666391927,0.000874419276,0.00104331522
-1.8,6.25655248e-06,0.000160684056,0.000412456498,0.000674281846,0.000888958326,0.00106334775
-1.85,6.30083265e-06,0.000161214484,0.000414328258,0.000681613738,0.000902958576,0.00108287133
-1.9,6.34502143e-06,0.00016173147,0.000416081634,0.000688397095,0.000916423319,0.00110188864
-1.95,6.38912874e-06,0.000162236028,0.000417732947,0.000694644435,0.000929355846,0.00112040236
-2.0,6.4331638e-06,0.000162729061,0.000419295413,0.000700372975,0.000941759444,0.00113841517
-2.05,6.47713518e-06,0.000163211381,0.00042077987,0.000705606602,0.00095363739,0.00115592973
-2.1,6.52105089e-06,0.000163683717,0.000422195305,0.000710377349,0.000964992945,0.0011729487
-2.15,6.56491836e-06,0.000164146725,0.000423549254,0.000714725099,0.000975829344,0.00118947471
-2.2,6.60874457e-06,0.000164601002,0.00042484809,0.000718694949,0.000986149772,0.00120551041
-2.25,6.65253604e-06,0.000165047088,0.000426097254,0.00072233321,0.000995957334,0.00122105841
-2.3,6.69629888e-06,0.000165485478,0.000427301426,0.000725683769,0.00100525502,0.00123612131
-2.35,6.74003885e-06,0.000165916622,0.000428464658,0.000728785904,0.00101404568,0.00125070169
-2.4,6.78376132e-06,0.000166340933,0.000429590486,0.000731673508,0.00102233204,0.00126480209
-2.45,6.82747138e-06,0.00016675879,0.000430682006,0.00073437525,0.00103011692,0.00127842501
-2.5,6.87117383e-06,0.000167170544,0.000431741952,0.000736915166,0.0010374038,0.00129157289
-2.55,6.91487318e-06,0.000167576517,0.000432772746,0.00073931336,0.00104419817,0.00130424808
-2.6,6.95857371e-06,0.000167977006,0.000433776542,0.000741586689,0.00105050957,0.00131645281
-2.65,7.00227949e-06,0.000168372289,0.000434755268,0.000743749343,0.00105635412,0.00132818911
-2.7,7.04599437e-06,0.000168762621,0.000435710655,0.000745813338,0.00106175609,0.00133945874
-2.75,7.08972203e-06,0.000169148241,0.000436644261,0.000747788906,0.00106674748,0.00135026308
-2.8,7.13346598e-06,0.000169529372,0.000437557495,0.000749684821,0.00107136555,0.00136060294
-2.85,7.17722962e-06,0.000169906221,0.000438451635,0.000751508646,0.00107564939,0.00137047837
-2.9,7.22101619e-06,0.000170278981,0.000439327845,0.000753266942,0.00107963703,0.00137988844
-2.95,7.26482887e-06,0.000170647835,0.000440187186,0.000754965433,0.00108336348,0.00138883107
-3.0,7.30867075e-06,0.000171012951,0.000441030629,0.000756609139,0.00108685995,0.00139730324
-3.05,7.35254489e-06,0.00017137449,0.000441859063,0.000758202484,0.00109015364,0.00140530169
-3.1,7.39645433e-06,0.000171732602,0.000442673308,0.000759749385,0.001093268,0.00141282462
-3.15,7.44040211e-06,0.000172087427,0.000443474118,0.000761253328,0.00109622317,0.00141987435
-3.2,7.48439133e-06,0.0001724391,0.00044426219,0.000762717424,0.00109903641,0.00142646007
-3.25,7.52842518e-06,0.000172787745,0.000445038167,0.000764144464,0.00110172254,0.00143259958
-3.3,7.57250695e-06,0.000173133483,0.000445802649,0.00076553696,0.00110429434,0.00143831898
-3.35,7.61664012e-06,0.000173476424,0.000446556189,0.000766897178,0.00110676283,0.00144365044
-3.4,7.66082838e-06,0.000173816678,0.000447299305,0.000768227174,0.00110913761,0.00144862914
-3.45,7.70507567e-06,0.000174154346,0.000448032477,0.000769528814,0.00111142704,0.00145329046
-3.5,7.74938627e-06,0.000174489524,0.000448756156,0.000770803799,0.00111363847,0.00145766806
-3.55,7.79376482e-06,0.000174822308,0.000449470762,0.000772053684,0.00111577832,0.00146179269
-3.6,7.83821643e-06,0.000175152785,0.000450176687,0.000773279893,0.00111785233,0.00146569186
-3.65,7.8827467e-06,0.000175481045,0.000450874302,0.000774483732,0.00111986554,0.00146938978
-3.7,7.92736185e-06,0.00017580717,0.000451563953,0.000775666407,0.00112182249,0.00147290759
-3.75,7.97206876e-06,0.000176131244,0.000452245965,0.000776829026,0.0011237272,0.00147626372
-3.8,8.01687504e-06,0.000176453348,0.000452920647,0.000777972618,0.00112558332,0.00147947418
-3.85,8.0617892e-06,0.000176773565,0.000453588287,0.000779098131,0.0011273941,0.00148255294
-3.9,8.10682063e-06,0.000177091974,0.00045424916,0.000780206448,0.00112916251,0.00148551216
-3.95,8.1519798e-06,0.00017740866,0.000454903526,0.000781298389,0.00113089123,0.00148836253
-4.0,8.19727832e-06,0.000177723706,0.00045555163,0.000782374718,0.00113258269,0.00149111342
-4.05,8.24272904e-06,0.0001780372,0.000456193708,0.000783436146,0.00113423913,0.0014937731
-4.1,8.28834619e-06,0.000178349234,0.000456829983,0.000784483339,0.00113586256,0.00149634888
-4.15,8.33414547e-06,0.000178659905,0.00045746067,0.000785516919,0.00113745487,0.00149884727
-4.2,8.38014421e-06,0.000178969314,0.000458085975,0.00078653747,0.00113901776,0.00150127406
-4.25,8.42636145e-06,0.000179277571,0.000458706099,0.000787545538,0.0011405528,0.00150363446
-4.3,8.47281811e-06,0.000179584796,0.000459321234,0.000788541639,0.00114206146,0.00150593311
-4.35,8.5195371e-06,0.000179891115,0.000459931573,0.000789526256,0.00114354507,0.00150817421
-4.4,8.56654346e-06,0.000180196671,0.000460537303,0.000790499847,0.00114500489,0.00151036156
-4.45,8.61386451e-06,0.000180501615,0.000461138613,0.000791462842,0.00114644207,0.00151249859
-4.5,8.66152997e-06,0.000180806115,0.000461735689,0.000792415649,0.00114785769,0.00151458843
-4.55,8.70957213e-06,0.000181110355,0.000462328725,0.000793358657,0.00114925274,0.00151663392
-4.6,8.75802597e-06,0.000181414538,0.000462917918,0.000794292233,0.00115062817,0.00151863768
-4.65,8.80692933e-06,0.000181718884,0.000463503472,0.000795216728,0.00115198485,0.00152060207
-4.7,8.85632304e-06,0.000182023639,0.000464085602,0.000796132479,0.0011533236,0.00152252929
-4.75,8.9062511e-06,0.00018232907,0.000464664533,0.00079703981,0.00115464517,0.00152442136
-4.8,8.95676077e-06,0.00018263547,0.00046524051,0.000797939034,0.0011559503,0.00152628012
-4.85,9.00790279e-06,0.000182943161,0.000465813792,0.000798830455,0.00115723965,0.0015281073
-4.9,9.05973148e-06,0.000183252494,0.000466384661,0.000799714371,0.00115851387,0.00152990448
-4.95,9.11230492e-06,0.000183563852,0.000466953425,0.000800591078,0.00115977354,0.00153167314
-5.0,9.16568509e-06,0.000183877655,0.00046752042,0.000801460868,0.00116101925,0.00153341464
-5.05,9.219938e-06,0.000184194355,0.000468086013,0.000802324038,0.00116225153,0.00153513027
-5.1,9.27513388e-06,0.000184514445,0.00046865061,0.000803180888,0.00116347088,0.0015368212
-5.15,9.33134727e-06,0.000184838461,0.000469214656,0.000804031729,0.0011646778,0.00153848855
-5.2,9.38865723e-06,0.000185166979,0.000469778641,0.000804876881,0.00116587274,0.00154013336
-5.25,9.44714741e-06,0.000185500622,0.000470343106,0.000805716683,0.00116705615,0.00154175659
-5.3,9.50690626e-06,0.00018584006,0.000470908644,0.000806551493,0.00116822846,0.00154335916
-5.35,9.56802711e-06,0.000186186013,0.000471475909,0.000807381696,0.00116939008,0.00154494192
-5.4,9.63060834e-06,0.000186539253,0.000472045618,0.000808207704,0.00117054142,0.00154650569
-5.45,9.6947535e-06,0.000186900606,0.000472618558,0.000809029968,0.00117168288,0.00154805121
-5.5,9.76057144e-06,0.000187270956,0.000473195591,0.000809848979,0.00117281485,0.0015495792
-5.55,9.82817644e-06,0.000187651242,0.000473777658,0.000810665274,0.00117393773,0.00155109035
-5.6,9.89768832e-06,0.000188042465,0.000474365784,0.000811479444,0.00117505192,0.0015525853
-5.65,9.96923258e-06,0.00018844569,0.000474961086,0.000812292142,0.00117615782,0.00155406465
-5.7,1.00429405e-05,0.000188862043,0.000475564778,0.000813104087,0.00117725587,0.001555529
-5.75,1.01189492e-05,0.000189292717,0.000476178172,0.000813916071,0.0011783465,0.00155697889
-5.8,1.0197402e-05,0.000189738974,0.00047680269,0.000814728972,0.00117943018,0.00155841487
-5.85,1.0278448e-05,0.000190202144,0.000477439866,0.000815543755,0.00118050742,0.00155983746
-5.9,1.03622427e-05,0.000190683629,0.000478091351,0.000816361484,0.00118157876,0.00156124716
-5.95,1.0448948e-05,0.000191184903,0.000478758918,0.00081718333,0.00118264477,0.00156264447
-6.0,1.05387321e-05,0.000191707513,0.000479444471,0.00081801058,0.0011837061,0.00156402988
-6.05,1.06317695e-05,0.000192253083,0.000480150044,0.000818844644,0.00118476344,0.00156540387
-6.1,1.07282414e-05,0.000192823312,0.000480877814,0.000819687065,0.00118581757,0.00156676696
-6.15,1.08283358e-05,0.000193419978,0.000481630097,0.000820539528,0.00118686933,0.00156811963
-6.2,1.09322472e-05,0.000194044936,0.000482409359,0.00082140387,0.00118791966,0.00156946242
-6.25,1.1040177e-05,0.000194700123,0.000483218219,0.000822282087,0.0011889696,0.00157079587
-6.3,1.11523333e-05,0.000195387554,0.000484059453,0.000823176345,0.0011900203,0.00157212055
-6.35,1.12689312e-05,0.000196109326,0.000484935998,0.00082408899,0.00119107302,0.00157343708
-6.4,1.13901928e-05,0.000196867619,0.000485850955,0.000825022553,0.00119212916,0.00157474613
-6.45,1.15163472e-05,0.000197664693,0.000486807597,0.000825979763,0.00119319028,0.0015760484
-6.5,1.16476306e-05,0.000198502894,0.000487809368,0.000826963557,0.00119425806,0.00157734467
-6.55,1.17842861e-05,0.000199384649,0.000488859887,0.000827977084,0.00119533439,0.00157863582
-6.6,1.19265642e-05,0.000200312468,0.000489962952,0.000829023716,0.00119642131,0.00157992278
