vds,vb1,vb2,vb3,vb4,vb5,vb6
0.0,-1.03728852e-32,-1.20372857e-30,-2.52860868e-22,-4.72578923e-22,1.81985901e-32,6.26953763e-20
-0.05,3.69668324e-07,2.5420481e-06,4.11702433e-06,5.32286406e-06,6.28452742e-06,7.07557273e-06
-0.1,6.13316168e-07,4.93729313e-06,8.09857741e-06,1.05213989e-05,1.24544877e-05,1.40449902e-05
-0.15,7.43561692e-07,7.18696647e-06,1.19455534e-05,1.559629e-05,1.85104253e-05,2.09086966e-05
-0.2,7.96260013e-07,9.29229839e-06,1.56588437e-05,2.05482212e-05,2.44528835e-05,2.76671356e-05
-0.25,8.18026115e-07,1.12545201e-05,1.92393364e-05,2.53778742e-05,3.02824045e-05,3.432075e-05
-0.3,8.31296747e-07,1.30748681e-05,2.26879168e-05,3.00859289e-05,3.59995292e-05,4.08699818e-05
-0.35,8.41898803e-07,1.47545904e-05,2.60054673e-05,3.46730634e-05,4.16047973e-05,4.7315272e-05
-0.4,8.51329949e-07,1.62949577e-05,2.91928675e-05,3.91399537e-05,4.70987472e-05,5.36570611e-05
-0.45,8.60082716e-07,1.76972812e-05,3.22509947e-05,4.34872738e-05,5.24819162e-05,5.98957884e-05
-0.5,8.68365784e-07,1.89629444e-05,3.5180724e-05,4.77156959e-05,5.77548401e-05,6.60318925e-05
-0.55,8.76288013e-07,2.00934622e-05,3.7982929e-05,5.18258904e-05,6.29180535e-05,7.20658112e-05
-0.6,8.83915879e-07,2.10905906e-05,4.06584823e-05,5.58185254e-05,6.79720898e-05,7.79979813e-05
-0.65,8.91294808e-07,2.19565454e-05,4.32082562e-05,5.96942675e-05,7.29174808e-05,8.38288386e-05
-0.7,8.98458345e-07,2.26944394e-05,4.56331242e-05,6.34537813e-05,7.77547572e-05,8.95588181e-05
-0.75,9.05432604e-07,2.33091518e-05,4.79339628e-05,6.70977297e-05,8.24844483e-05,9.51883538e-05
-0.8,9.12238676e-07,2.38088896e-05,5.01116537e-05,7.0626774e-05,8.71070821e-05,0.000100717879
-0.85,9.18894041e-07,2.42072516e-05,5.21670876e-05,7.4041574e-05,9.16231851e-05,0.000106147825
-0.9,9.25413462e-07,2.45239576e-05,5.41011694e-05,7.7342788e-05,9.60332825e-05,0.000111478624
-0.95,9.3180959e-07,2.47814833e-05,5.59148264e-05,8.05310734e-05,0.000100337898,0.000116710705
-1.0,9.38093387e-07,2.49991581e-05,5.76090204e-05,8.36070868e-05,0.000104537556,0.000121844499
-1.05,9.44274442e-07,2.51901688e-05,5.91847674e-05,8.6571484e-05,0.000108632775,0.000126880432
-1.1,9.50361204e-07,2.53624719e-05,6.06431688e-05,8.94249212e-05,0.000112624078,0.000131818933
-1.15,9.56361163e-07,2.55207897e-05,6.19854632e-05,9.21680552e-05,0.000116511982,0.000136660427
-1.2,9.62281003e-07,2.56680616e-05,6.32131136e-05,9.48015441e-05,0.000120297006,0.000141405339
-1.25,9.68126712e-07,2.58062484e-05,6.43279546e-05,9.73260489e-05,0.000123979667,0.000146054095
-1.3,9.73903682e-07,2.59367465e-05,6.53324436e-05,9.97422345e-05,0.000127560481,0.000150607117
-1.35,9.79616784e-07,2.60606053e-05,6.62300674e-05,0.000102050772,0.000131039962,0.000155064828
-1.4,9.85270436e-07,2.61786455e-05,6.70259439e-05,0.000104252343,0.000134418626,0.00015942765
-1.45,9.9086866e-07,2.6291529e-05,6.7727516e-05,0.000106347639,0.000137696986,0.000163696002
-1.5,9.96415125e-07,2.63998018e-05,6.83449346e-05,0.000108337374,0.000140875557,0.000167870305
-1.55,1.00191319e-06,2.6503922e-05,6.88904961e-05,0.000110222288,0.000143954851,0.000171950978
-1.6,1.00736594e-06,2.66042795e-05,6.93770059e-05,0.000112003161,0.000146935383,0.000175938439
-1.65,1.0127762e-06,2.67012097e-05,6.98159709e-05,0.000113680833,0.000149817668,0.000179833105
-1.7,1.0181466e-06,2.67950038e-05,7.02166554e-05,0.00011525623,0.000152602223,0.000183635393
-1.75,1.02347955e-06,2.68859168e-05,7.0586098e-05,0.000116730414,0.000155289564,0.00018734572
-1.8,1.02877728e-06,2.69741732e-05,7.092957e-05,0.000118104647,0.000157880214,0.000190964501
-1.85,1.03404187e-06,2.70599721e-05,7.1251065e-05,0.000119380504,0.000160374698,0.000194492151
-1.9,1.03927525e-06,2.71434906e-05,7.15536747e-05,0.000120560036,0.000162773546,0.000197929084
-1.95,1.04447922e-06,2.72248876e-05,7.18398483e-05,0.000121646004,0.000165077298,0.000201275717
-2.0,1.04965545e-06,2.73043056e-05,7.21115663e-05,0.000122642174,0.000167286501,0.000204532463
-2.05,1.05480549e-06,2.73818735e-05,7.23704586e-05,0.000123553591,0.00016940172,0.000207699738
-2.1,1.05993083e-06,2.74577079e-05,7.26178864e-05,0.000124386686,0.000171423536,0.000210777956
-2.15,1.06503282e-06,2.75319146e-05,7.28550005e-05,0.000125149035,0.000173352559,0.000213767533
-2.2,1.07011276e-06,2.76045904e-05,7.3082784e-05,0.000125848763,0.000175189434,0.000216668886
-2.25,1.07517184e-06,2.76758236e-05,7.33020838e-05,0.000126493841,0.000176934859,0.000219482433
-2.3,1.08021121e-06,2.7745695e-05,7.35136361e-05,0.000127091548,0.000178589605,0.000222208595
-2.35,1.08523194e-06,2.7814279e-05,7.37180843e-05,0.000127648225,0.000180154546,0.000224847793
-2.4,1.09023503e-06,2.78816442e-05,7.39159948e-05,0.000128169247,0.000181630709,0.000227400452
-2.45,1.09522144e-06,2.79478538e-05,7.41078687e-05,0.000128659127,0.000183019339,0.000229867002
-2.5,1.10019206e-06,2.80129662e-05,7.42941516e-05,0.000129121636,0.000184322006,0.000232247877
-2.55,1.10514776e-06,2.80770358e-05,7.44752417e-05,0.00012955994,0.000185540733,0.000234543517
-2.6,1.11008933e-06,2.81401128e-05,7.4651496e-05,0.000129976708,0.000186678176,0.000236754369
-2.65,1.11501754e-06,2.82022441e-05,7.48232363e-05,0.000130374206,0.000187737781,0.000238880889
-2.7,1.11993313e-06,2.82634733e-05,7.49907531e-05,0.000130754368,0.000188723888,0.000240923547
-2.75,1.1248368e-06,2.83238413e-05,7.51543101e-05,0.000131118859,0.000189641658,0.000242882822
-2.8,1.1297292e-06,2.83833861e-05,7.53141472e-05,0.000131469117,0.000190496835,0.000244759214
-2.85,1.13461099e-06,2.84421434e-05,7.54704831e-05,0.000131806396,0.000191295386,0.00024655324
-2.9,1.13948276e-06,2.85001466e-05,7.5623518e-05,0.000132131793,0.000192043148,0.000248265443
-2.95,1.14434513e-06,2.85574272e-05,7.57734355e-05,0.000132446273,0.000192745578,0.000249896406
-3.0,1.14919867e-06,2.86140146e-05,7.59204045e-05,0.00013275069,0.000193407613,0.000251446764
-3.05,1.15404394e-06,2.86699367e-05,7.60645803e-05,0.000133045802,0.000194033624,0.000252917253
-3.1,1.1588815e-06,2.87252197e-05,7.62061068e-05,0.000133332286,0.00019462744,0.000254308788
-3.15,1.16371192e-06,2.87798882e-05,7.63451169e-05,0.000133610747,0.000195192394,0.000255622596
-3.2,1.16853574e-06,2.88339657e-05,7.64817339e-05,0.000133881732,0.000195731377,0.000256860417
-3.25,1.17335352e-06,2.88874743e-05,7.66160722e-05,0.000134145731,0.000196246906,0.000258024703
-3.3,1.17816583e-06,2.8940435e-05,7.67482385e-05,0.000134403191,0.000196741167,0.000259118754
-3.35,1.18297328e-06,2.89928676e-05,7.68783322e-05,0.000134654515,0.000197216076,0.000260146683
-3.4,1.18777646e-06,2.90447912e-05,7.70064459e-05,0.000134900072,0.000197673308,0.000261113212
-3.45,1.19257604e-06,2.90962238e-05,7.71326664e-05,0.000135140198,0.00019811434,0.000262023374
-3.5,1.19737269e-06,2.91471826e-05,7.72570749e-05,0.000135375201,0.000198540477,0.000262882217
-3.55,1.20216714e-06,2.91976842e-05,7.73797476e-05,0.000135605365,0.000198952876,0.000263694572
-3.6,1.2069602e-06,2.92477446e-05,7.75007561e-05,0.00013583095,0.000199352567,0.000264464917
-3.65,1.21175271e-06,2.92973791e-05,7.76201677e-05,0.000136052194,0.000199740472,0.000265197317
-3.7,1.21654561e-06,2.93466026e-05,7.77380456e-05,0.000136269321,0.000200117417,0.000265895405
-3.75,1.22133992e-06,2.93954297e-05,7.78544496e-05,0.000136482536,0.000200484148,0.00026656241
-3.8,1.22613675e-06,2.94438749e-05,7.79694361e-05,0.000136692029,0.000200841335,0.000267201184
-3.85,1.23093735e-06,2.94919521e-05,7.80830584e-05,0.000136897977,0.000201189588,0.000267814249
-3.9,1.23574305e-06,2.95396757e-05,7.8195367e-05,0.000137100545,0.000201529461,0.00026840383
-3.95,1.24055536e-06,2.95870598e-05,7.83064099e-05,0.000137299887,0.000201861456,0.000268971895
-4.0,1.2453759e-06,2.96341189e-05,7.84162325e-05,0.000137496146,0.000202186035,0.000269520192
-4.05,1.2502065e-06,2.96808678e-05,7.85248782e-05,0.000137689456,0.00020250362,0.000270050272
-4.1,1.25504913e-06,2.9727322e-05,7.86323885e-05,0.000137879944,0.000202814597,0.000270563521
-4.15,1.25990597e-06,2.97734975e-05,7.87388029e-05,0.000138067728,0.000203119323,0.000271061176
-4.2,1.26477943e-06,2.98194113e-05,7.88441595e-05,0.000138252917,0.000203418127,0.000271544349
-4.25,1.26967212e-06,2.98650812e-05,7.89484953e-05,0.000138435618,0.000203711311,0.000272014038
-4.3,1.27458691e-06,2.99105265e-05,7.90518458e-05,0.000138615927,0.000203999158,0.000272471147
-4.35,1.27952694e-06,2.9955768e-05,7.91542458e-05,0.000138793937,0.000204281927,0.000272916492
-4.4,1.2844956e-06,3.00008281e-05,7.92557296e-05,0.000138969737,0.000204559862,0.000273350816
-4.45,1.28949661e-06,3.00457311e-05,7.9356331e-05,0.000139143408,0.000204833188,0.000273774792
-4.5,1.29453399e-06,3.00905036e-05,7.94560837e-05,0.000139315029,0.000205102114,0.000274189036
-4.55,1.29961211e-06,3.01351746e-05,7.95550217e-05,0.000139484675,0.000205366838,0.000274594113
-4.6,1.30473566e-06,3.01797758e-05,7.96531795e-05,0.000139652417,0.000205627543,0.000274990539
-4.65,1.30990973e-06,3.0224342e-05,7.97505927e-05,0.000139818321,0.000205884401,0.000275378788
-4.7,1.3151398e-06,3.02689112e-05,7.98472979e-05,0.000139982453,0.000206137574,0.000275759299
-4.75,1.32043173e-06,3.03135252e-05,7.99433337e-05,0.000140144874,0.000206387212,0.000276132474
-4.8,1.32579184e-06,3.03582295e-05,8.00387406e-05,0.000140305644,0.000206633459,0.000276498688
-4.85,1.33122688e-06,3.04030741e-05,8.01335621e-05,0.000140464821,0.000206876448,0.000276858286
-4.9,1.33674406e-06,3.04481134e-05,8.02278444e-05,0.000140622462,0.000207116306,0.000277211589
-4.95,1.34235109e-06,3.04934069e-05,8.03216376e-05,0.00014077862,0.000207353153,0.000277558895
-5.0,1.34805615e-06,3.05390192e-05,8.04149962e-05,0.000140933351,0.000207587102,0.000277900484
-5.05,1.35386796e-06,3.05850206e-05,8.05079794e-05,0.000141086709,0.000207818259,0.000278236613
-5.1,1.35979577e-06,3.06314873e-05,8.06006519e-05,0.000141238747,0.000208046727,0.000278567527
-5.15,1.36584939e-06,3.0678502e-05,8.06930847e-05,0.000141389522,0.000208272601,0.00027889345
-5.2,1.37203919e-06,3.07261539e-05,8.07853555e-05,0.00014153909,0.000208495975,0.000279214597
-5.25,1.37837611e-06,3.07745392e-05,8.08775497e-05,0.000141687508,0.000208716936,0.000279531165
-5.3,1.38487173e-06,3.08237615e-05,8.09697613e-05,0.000141834839,0.000208935568,0.000279843343
-5.35,1.39153823e-06,3.08739323e-05,8.10620932e-05,0.000141981146,0.000209151954,0.000280151307
-5.4,1.3983884e-06,3.09251708e-05,8.11546582e-05,0.000142126499,0.000209366171,0.000280455222
-5.45,1.4054357e-06,3.0977605e-05,8.12475802e-05,0.000142270971,0.000209578297,0.000280755246
-5.5,1.41269427e-06,3.10313712e-05,8.13409946e-05,0.000142414641,0.000209788407,0.000281051526
-5.55,1.42017888e-06,3.10866151e-05,8.14350491e-05,0.000142557597,0.000209996575,0.000281344202
-5.6,1.42790502e-06,3.11434918e-05,8.15299053e-05,0.000142699932,0.000210202875,0.000281633407
-5.65,1.43588888e-06,3.12021657e-05,8.16257385e-05,0.00014284175,0.000210407381,0.000281919266
-5.7,1.44414734e-06,3.12628116e-05,8.17227396e-05,0.000142983164,0.00021061017,0.0002822019
-5.75,1.45269804e-06,3.13256143e-05,8.18211154e-05,0.000143124299,0.000210811318,0.000282481423
-5.8,1.46155932e-06,3.13907694e-05,8.19210898e-05,0.000143265292,0.000211010907,0.000282757945
-5.85,1.47075029e-06,3.14584832e-05,8.20229044e-05,0.000143406295,0.00021120902,0.000283031569
-5.9,1.4802908e-06,3.15289731e-05,8.21268198e-05,0.000143547473,0.000211405748,0.000283302399
-5.95,1.49020147e-06,3.16024677e-05,8.2233116e-05,0.000143689009,0.000211601184,0.000283570531
-6.0,1.5005037e-06,3.16792075e-05,8.23420939e-05,0.000143831104,0.000211795433,0.000283836062
-6.05,1.51121965e-06,3.17594443e-05,8.24540756e-05,0.000143973977,0.000211988604,0.000284099086
-6.1,1.52237229e-06,3.18434422e-05,8.25694055e-05,0.00014411787,0.000212180819,0.000284359697
-6.15,1.53398537e-06,3.19314775e-05,8.2688451e-05,0.000144263047,0.00021237221,0.000284617987
-6.2,1.54608344e-06,3.20238385e-05,8.28116035e-05,0.000144409793,0.000212562922,0.000284874051
-6.25,1.55869186e-06,3.21208264e-05,8.29392793e-05,0.000144558422,0.000212753116,0.000285127984
-6.3,1.57183679e-06,3.22227546e-05,8.30719197e-05,0.000144709274,0.000212942967,0.000285379886
-6.35,1.58554523e-06,3.23299495e-05,8.32099924e-05,0.000144862716,0.00021313267,0.00028562986
-6.4,1.59984496e-06,3.24427504e-05,8.33539921e-05,0.000145019148,0.000213322439,0.000285878014
-6.45,1.61476461e-06,3.25615093e-05,8.35044407e-05,0.000145178999,0.00021351251,0.000286124463
-6.5,1.63033362e-06,3.26865913e-05,8.36618884e-05,0.000145342733,0.000213703142,0.000286369332
-6.55,1.64658226e-06,3.28183747e-05,8.38269142e-05,0.000145510848,0.000213894623,0.000286612753
-6.6,1.66354161e-06,3.29572508e-05,8.40001262e-05,0.000145683878,0.000214087266,0.000286854872
