vds,vb1,vb2,vb3,vb4,vb5,vb6
0.0,4.2065228599999997e-32,-3.21142706e-21,-6.003263330000001e-21,-5.5563701900000006e-21,3.79012172e-30,7.10367693e-19
-0.05,4.14763201e-06,3.01923348e-05,4.81117032e-05,6.13108526e-05,7.14983499e-05,7.96351943e-05
-0.1,6.81331195e-06,5.86371603e-05,9.46287331e-05,0.000121170533,0.000141667792,0.000158044739
-0.15,8.17799748e-06,8.53511921e-05,0.000139563116,0.000179588255,0.000210515684,0.00023523469
-0.2,8.71992729e-06,0.000110351108,0.000182926834,0.000236573207,0.000278049364,0.000311211091
-0.25,8.96713262e-06,0.000133653571,0.000224731815,0.000292134542,0.000344276148,0.000385979968
-0.3,9.13549275e-06,0.000155275281,0.000264989939,0.000346281381,0.000409203332,0.000459547334
-0.35,9.27750488e-06,0.000175233047,0.000303713036,0.000399022815,0.000472838188,0.000531919184
-0.4,9.40707136e-06,0.000193543921,0.00034091289,0.000450367898,0.000535187967,0.000603101497
-0.45,9.52907542e-06,0.00021022541,0.000376601239,0.000500325653,0.000596259897,0.000673100236
-0.5,9.64574279e-06,0.000225295851,0.000410789782,0.00054890507,0.000656061181,0.000741921349
-0.55,9.75831108e-06,0.000238775105,0.00044349018,0.000596115105,0.000714599002,0.000809570765
-0.6,9.86757172e-06,0.000250685866,0.000474714064,0.000641964679,0.000771880518,0.000876054396
-0.65,9.97408087e-06,0.000261056236,0.000504473046,0.000686462682,0.000827912861,0.000941378137
-0.7,1.00782548e-05,0.000269924901,0.000532778729,0.000729617969,0.000882703141,0.00100554787
-0.75,1.01804188e-05,0.000277351333,0.000559642729,0.000771439363,0.000936258443,0.00106856944
-0.8,1.02808349e-05,0.000283433823,0.000585076698,0.000811935657,0.000988585828,0.0011304487
-0.85,1.03797187e-05,0.000288332204,0.000609092361,0.000851115612,0.00103969233,0.00119119147
-0.9,1.0477251e-05,0.000292273138,0.000631701576,0.00088898796,0.00108958496,0.00125080356
-0.95,1.0573585e-05,0.000295509544,0.000652916412,0.000925561407,0.00113827071,0.00130929075
-1.0,1.06688523e-05,0.000298257109,0.000672749283,0.000960844632,0.00118575654,0.0013666588
-1.05,1.07631666e-05,0.000300665317,0.000691213145,0.000994846297,0.00123204939,0.00142291347
-1.1,1.08566275e-05,0.000302828161,0.000708321826,0.00102757504,0.00127715616,0.00147806049
-1.15,1.09493219e-05,0.000304804572,0.000724090566,0.00105903949,0.00132108376,0.00153210556
-1.2,1.10413271e-05,0.000306633215,0.000738536924,0.00108924828,0.00136383905,0.00158505437
-1.25,1.11327115e-05,0.000308340923,0.000751682345,0.00111821002,0.00140542886,0.00163691261
-1.3,1.12235362e-05,0.000309947277,0.000763554806,0.00114593336,0.00144586004,0.00168768592
-1.35,1.13138558e-05,0.000311467152,0.000774193156,0.00117242697,0.00148513937,0.00173737993
-1.4,1.14037197e-05,0.0003129122,0.000783653481,0.00119769956,0.00152327363,0.00178600028
-1.45,1.14931723e-05,0.000314291773,0.000792016345,0.00122175994,0.00156026959,0.00183355255
-1.5,1.1582254e-05,0.000315613519,0.000799390566,0.00124461701,0.00159613398,0.00188004232
-1.55,1.16710013e-05,0.000316883792,0.000805907455,0.00126627987,0.00163087354,0.00192547516
-1.6,1.17594478e-05,0.000318107936,0.000811704999,0.00128675786,0.00166449495,0.0019698566
-1.65,1.18476239e-05,0.000319290497,0.000816910692,0.0013060607,0.00169700492,0.00201319219
-1.7,1.19355577e-05,0.000320435374,0.000821631853,0.00132419869,0.00172841011,0.00205548742
-1.75,1.20232748e-05,0.000321545944,0.000825954241,0.00134118298,0.00175871719,0.00209674779
-1.8,1.21107989e-05,0.000322625147,0.000829945036,0.00135702608,0.00178793279,0.00213697876
-1.85,1.2198152e-05,0.000323675564,0.00083365681,0.0013717427,0.00181606356,0.0021761858
-1.9,1.22853541e-05,0.00032469947,0.000837131046,0.00138535112,0.0018431161,0.00221437434
-1.95,1.2372424e-05,0.000325698883,0.000840400865,0.00139787549,0.001869097,0.0022515498
-2.0,1.24593792e-05,0.000326675602,0.000843493049,0.00140934935,0.00189401282,0.00228771758
-2.05,1.25462356e-05,0.000327631235,0.000846429522,0.00141981992,0.00191787007,0.00232288306
-2.1,1.26330085e-05,0.00032856723,0.000849228436,0.00142935143,0.00194067518,0.00235705159
-2.15,1.27197119e-05,0.000329484889,0.000851904981,0.00143802474,0.00196243447,0.00239022851
-2.2,1.28063587e-05,0.000330385394,0.000854471987,0.00144593192,0.00198315406,0.00242241911
-2.25,1.28929614e-05,0.000331269816,0.000856940386,0.00145316781,0.00200283981,0.00245362866
-2.3,1.29795315e-05,0.000332139131,0.000859319566,0.00145982234,0.00202149713,0.00248386237
-2.35,1.30660796e-05,0.000332994231,0.000861617649,0.00146597591,0.00203913094,0.00251312542
-2.4,1.31526161e-05,0.000333835933,0.000863841705,0.00147169779,0.0020557456,0.00254142286
-2.45,1.32391503e-05,0.000334664986,0.000865997926,0.00147704647,0.00207134536,0.00256875968
-2.5,1.33256914e-05,0.00033548208,0.000868091767,0.00148207085,0.00208593562,0.00259514068
-2.55,1.34122478e-05,0.000336287851,0.000870128054,0.00148681175,0.0020995258,0.00262057047
-2.6,1.34988275e-05,0.000337082887,0.000872111082,0.00149130333,0.00211213412,0.00264505331
-2.65,1.35854383e-05,0.000337867734,0.000874044685,0.00149557428,0.00212379295,0.00266859305
-2.7,1.36720872e-05,0.000338642895,0.000875932303,0.00149964884,0.00213455224,0.00269119285
-2.75,1.37587814e-05,0.000339408843,0.000877777032,0.00150354762,0.00214447832,0.00271285495
-2.8,1.38455273e-05,0.000340166012,0.000879581669,0.00150728826,0.00215364842,0.00273358025
-2.85,1.39323313e-05,0.000340914813,0.00088134875,0.00151088594,0.00216214339,0.00275336786
-2.9,1.40191996e-05,0.000341655625,0.000883080579,0.00151435381,0.0021700415,0.00277221457
-2.95,1.41061381e-05,0.000342388807,0.000884779257,0.00151770332,0.00217741461,0.00279011462
-3.0,1.41931527e-05,0.000343114691,0.000886446707,0.00152094452,0.00218432644,0.00280705999
-3.05,1.42802492e-05,0.000343833592,0.00088808469,0.00152408623,0.00219083241,0.00282304225
-3.1,1.43674334e-05,0.000344545804,0.000889694824,0.00152713626,0.00219698015,0.00283805641
-3.15,1.4454711e-05,0.000345251605,0.000891278599,0.00153010155,0.00220281043,0.00285210664
-3.2,1.45420879e-05,0.000345951256,0.000892837392,0.0015329883,0.00220835812,0.00286521223
-3.25,1.46295703e-05,0.000346645005,0.000894372474,0.00153580206,0.00221365312,0.00287741097
-3.3,1.47171645e-05,0.000347333084,0.000895885026,0.0015385478,0.0022187211,0.00288875796
-3.35,1.48048772e-05,0.000348015716,0.00089737614,0.00154123004,0.00222358423,0.00289932062
-3.4,1.48927155e-05,0.000348693111,0.000898846837,0.00154385285,0.00222826175,0.00290917212
-3.45,1.49806871e-05,0.000349365468,0.000900298064,0.00154641992,0.0022327704,0.00291838557
-3.5,1.50688002e-05,0.00035003298,0.000901730707,0.00154893462,0.00223712483,0.00292703001
-3.55,1.51570641e-05,0.000350695829,0.000903145593,0.00155140004,0.00224133792,0.00293516833
-3.6,1.52454886e-05,0.000351354192,0.000904543497,0.00155381898,0.00224542106,0.00294285647
-3.65,1.53340848e-05,0.00035200824,0.000905925146,0.00155619403,0.00224938434,0.00295014351
-3.7,1.54228648e-05,0.00035265814,0.00090729122,0.00155852757,0.00225323674,0.00295707221
-3.75,1.55118423e-05,0.000353304054,0.000908642361,0.00156082179,0.00225698629,0.0029636797
-3.8,1.56010322e-05,0.000353946145,0.000909979174,0.00156307872,0.00226064021,0.00296999822
-3.85,1.56904513e-05,0.000354584572,0.000911302228,0.00156530022,0.00226420498,0.00297605577
-3.9,1.57801183e-05,0.000355219497,0.000912612061,0.00156748805,0.00226768646,0.00298187678
-3.95,1.58700537e-05,0.000355851084,0.000913909183,0.00156964381,0.00227108996,0.00298748259
-4.0,1.59602805e-05,0.000356479501,0.00091519408,0.00157176901,0.00227442032,0.00299289192
-4.05,1.60508243e-05,0.000357104923,0.000916467211,0.00157386505,0.00227768193,0.00299812127
-4.1,1.61417131e-05,0.000357727533,0.000917729017,0.00157593325,0.0022808788,0.00300318523
-4.15,1.62329782e-05,0.000358347524,0.000918979919,0.00157797482,0.00228401463,0.00300809672
-4.2,1.63246538e-05,0.000358965101,0.000920220325,0.00157999091,0.00228709279,0.00301286729
-4.25,1.64167776e-05,0.000359580485,0.000921450627,0.0015819826,0.0022901164,0.00301750723
-4.3,1.65093912e-05,0.000360193915,0.000922671208,0.00158395089,0.00229308832,0.00302202578
-4.35,1.660254e-05,0.000360805651,0.000923882445,0.00158589676,0.00229601121,0.00302643128
-4.4,1.66962736e-05,0.000361415974,0.00092508471,0.00158782108,0.00229888753,0.00303073122
-4.45,1.67906462e-05,0.000362025195,0.000926278374,0.0015897247,0.00230171954,0.0030349324
-4.5,1.68857168e-05,0.000362633653,0.000927463811,0.00159160844,0.00230450938,0.00303904102
-4.55,1.69815494e-05,0.000363241721,0.000928641403,0.00159347304,0.00230725901,0.00304306269
-4.6,1.70782134e-05,0.000363849809,0.000929811542,0.00159531924,0.00230997028,0.00304700256
-4.65,1.71757838e-05,0.000364458367,0.000930974637,0.00159714772,0.00231264489,0.00305086532
-4.7,1.72743416e-05,0.000365067891,0.000932131117,0.00159895914,0.00231528445,0.0030546553
-4.75,1.73739742e-05,0.000365678924,0.000933281437,0.00160075415,0.00231789048,0.00305837645
-4.8,1.74747751e-05,0.000366292062,0.000934426085,0.00160253335,0.00232046438,0.00306203245
-4.85,1.75768451e-05,0.000366907959,0.000935565586,0.00160429734,0.00232300748,0.00306562667
-4.9,1.76802919e-05,0.000367527328,0.000936700508,0.00160604673,0.00232552103,0.00306916224
-4.95,1.77852307e-05,0.000368150949,0.000937831475,0.00160778208,0.00232800621,0.00307264205
-5.0,1.78917845e-05,0.00036877967,0.000938959165,0.00160950397,0.00233046413,0.00307606879
-5.05,1.8000084e-05,0.000369414415,0.000940084326,0.00161121301,0.00233289585,0.00307944498
-5.1,1.81102688e-05,0.000370056186,0.000941207777,0.00161290978,0.00233530237,0.00308277294
-5.15,1.82224865e-05,0.000370706067,0.000942330425,0.00161459489,0.00233768463,0.00308605486
-5.2,1.83368939e-05,0.000371365232,0.000943453265,0.001616269,0.00234004355,0.00308929277
-5.25,1.84536571e-05,0.000372034944,0.000944577395,0.00161793279,0.00234238,0.00309248858
-5.3,1.85729514e-05,0.000372716565,0.000945704025,0.00161958696,0.00234469483,0.00309564408
-5.35,1.86949619e-05,0.000373411556,0.000946834482,0.00162123229,0.00234698885,0.00309876094
-5.4,1.88198837e-05,0.000374121486,0.000947970229,0.00162286962,0.00234926286,0.00310184075
-5.45,1.89479223e-05,0.000374848031,0.000949112865,0.00162449986,0.00235151764,0.00310488499
-5.5,1.90792934e-05,0.000375592982,0.000950264143,0.001626124,0.00235375398,0.00310789507
-5.55,1.92142239e-05,0.000376358247,0.00095142598,0.00162774313,0.00235597266,0.00311087232
-5.6,1.93529514e-05,0.000377145858,0.000952600463,0.00162935845,0.00235817447,0.003113818
-5.65,1.94957248e-05,0.000377957971,0.000953789865,0.00163097128,0.00236036023,0.00311673331
-5.7,1.96428045e-05,0.000378796872,0.000954996653,0.00163258308,0.00236253079,0.00311961939
-5.75,1.97944626e-05,0.00037966498,0.000956223502,0.00163419548,0.00236468703,0.00312247734
-5.8,1.99509831e-05,0.000380564853,0.000957473301,0.00163581025,0.0023668299,0.00312530822
-5.85,2.01126623e-05,0.000381499187,0.00095874917,0.00163742936,0.0023689604,0.00312811303
-5.9,2.02798085e-05,0.000382470822,0.000960054466,0.00163905497,0.00237107962,0.00313089279
-5.95,2.04527428e-05,0.000383482744,0.000961392798,0.00164068948,0.00237318873,0.00313364847
-6.0,2.06317988e-05,0.000384538088,0.000962768031,0.0016423355,0.00237528904,0.00313638103
-6.05,2.08173231e-05,0.000385640143,0.000964184304,0.0016439959,0.00237738195,0.00313909146
-6.1,2.10096753e-05,0.00038679235,0.000965646036,0.00164567383,0.00237946904,0.00314178072
-6.15,2.12092281e-05,0.000387998308,0.000967157935,0.00164737272,0.00238155202,0.00314444984
-6.2,2.14163678e-05,0.000389261772,0.00096872501,0.0016490963,0.00238363281,0.00314709985
-6.25,2.16314939e-05,0.000390586662,0.000970352579,0.00165084865,0.00238571351,0.00314973184
-6.3,2.18550197e-05,0.000391977057,0.000972046278,0.00165263418,0.00238779646,0.00315234696
-6.35,2.2087372e-05,0.000393437201,0.000973812068,0.00165445765,0.00238988425,0.00315494647
-6.4,2.23289919e-05,0.000394971501,0.000975656246,0.00165632422,0.00239197973,0.00315753167
-6.45,2.2580334e-05,0.000396584533,0.000977585449,0.00165823945,0.00239408605,0.00316010404
-6.5,2.28418673e-05,0.000398281037,0.000979606664,0.0016602093,0.00239620668,0.00316266514
-6.55,2.31140746e-05,0.000400065921,0.000981727234,0.00166224018,0.00239834542,0.00316521673
-6.6,2.33974533e-05,0.000401944263,0.00098395486,0.00166433894,0.00240050648,0.00316776073
