vds,vb1,vb2,vb3,vb4,vb5,vb6
0.0,4.12425398e-06,1.46262563e-05,2.36498869e-05,3.14997087e-05,3.83561948e-05,4.43722133e-05
-0.05,3.50445337e-06,1.3934821e-05,2.29640409e-05,3.08324405e-05,3.77124706e-05,4.37540235e-05
-0.1,2.89088576e-06,1.32475089e-05,2.2281759e-05,3.01682578e-05,3.70714193e-05,4.31381532e-05
-0.15,2.28579899e-06,1.25643008e-05,2.16030186e-05,2.95071422e-05,3.64330262e-05,4.25245908e-05
-0.2,1.69542784e-06,1.18851817e-05,2.09277974e-05,2.88490757e-05,3.5797277e-05,4.19133249e-05
-0.25,1.1382003e-06,1.12101432e-05,2.02560739e-05,2.81940401e-05,3.51641575e-05,4.13043444e-05
-0.3,6.63729318e-07,1.05391857e-05,1.95878273e-05,2.75420178e-05,3.45336534e-05,4.06976379e-05
-0.35,3.49488027e-07,9.8723229e-06,1.89230374e-05,2.68929913e-05,3.39057509e-05,4.00931944e-05
-0.4,2.02980142e-07,9.20958755e-06,1.82616855e-05,2.62469434e-05,3.32804359e-05,3.94910028e-05
-0.45,1.46991748e-07,8.55104206e-06,1.76037536e-05,2.56038573e-05,3.26576947e-05,3.88910521e-05
-0.5,1.24590545e-07,7.89679496e-06,1.69492254e-05,2.49637162e-05,3.20375139e-05,3.82933314e-05
-0.55,1.14000711e-07,7.24702909e-06,1.62980864e-05,2.43265041e-05,3.14198798e-05,3.76978299e-05
-0.6,1.07977682e-07,6.60205066e-06,1.56503245e-05,2.36922051e-05,3.08047792e-05,3.7104537e-05
-0.65,1.03963909e-07,5.96237739e-06,1.50059303e-05,2.30608037e-05,3.0192199e-05,3.6513442e-05
-0.7,1.00953861e-07,5.32890153e-06,1.43648984e-05,2.24322851e-05,2.95821263e-05,3.59245343e-05
-0.75,9.85072275e-08,4.70319951e-06,1.37272283e-05,2.1806635e-05,2.89745481e-05,3.53378034e-05
-0.8,9.641154e-08,4.08812855e-06,1.30929263e-05,2.11838397e-05,2.83694521e-05,3.47532392e-05
-0.85,9.45550262e-08,3.48896203e-06,1.24620076e-05,2.05638864e-05,2.77668258e-05,3.41708312e-05
-0.9,9.28741492e-08,2.91539283e-06,1.18344998e-05,1.99467632e-05,2.71666571e-05,3.35905694e-05
-0.95,9.13301599e-08,2.38430272e-06,1.12104479e-05,1.93324594e-05,2.65689344e-05,3.30124438e-05
-1.0,8.98978645e-08,1.92093911e-06,1.05899218e-05,1.87209654e-05,2.5973646e-05,3.24364444e-05
-1.05,8.8559909e-08,1.55212154e-06,9.97302693e-06,1.81122737e-05,2.53807807e-05,3.18625616e-05
-1.1,8.7303711e-08,1.28920383e-06,9.35992184e-06,1.75063782e-05,2.47903278e-05,3.12907857e-05
-1.15,8.61197332e-08,1.1178544e-06,8.75084457e-06,1.6903276e-05,2.4202277e-05,3.07211072e-05
-1.2,8.50004681e-08,1.00965925e-06,8.14615545e-06,1.63029669e-05,2.36166183e-05,3.01535169e-05
-1.25,8.39398179e-08,9.39170682e-07,7.54640632e-06,1.57054548e-05,2.30333425e-05,2.95880056e-05
-1.3,8.29327012e-08,8.89941888e-07,6.95245468e-06,1.51107491e-05,2.24524408e-05,2.90245646e-05
-1.35,8.19747943e-08,8.52785847e-07,6.36565351e-06,1.45188657e-05,2.18739054e-05,2.8463185e-05
-1.4,8.10623563e-08,8.22804789e-07,5.78816589e-06,1.39298294e-05,2.12977292e-05,2.79038584e-05
-1.45,8.01921069e-08,7.97370586e-07,5.22347357e-06,1.3343677e-05,2.07239064e-05,2.73465767e-05
-1.5,7.93611377e-08,7.75024999e-07,4.67714194e-06,1.27604613e-05,2.0152432e-05,2.6791332e-05
-1.55,7.85668477e-08,7.54920379e-07,4.1577808e-06,1.21802569e-05,1.95833029e-05,2.62381167e-05
-1.6,7.78068936e-08,7.3653752e-07,3.67771357e-06,1.16031691e-05,1.90165177e-05,2.56869237e-05
-1.65,7.70791518e-08,7.19540758e-07,3.25205434e-06,1.10293459e-05,1.84520772e-05,2.51377461e-05
-1.7,7.63816881e-08,7.03701314e-07,2.89458822e-06,1.04589962e-05,1.78899848e-05,2.45905777e-05
-1.75,7.57127331e-08,6.88855347e-07,2.61127869e-06,9.89241758e-06,1.73302475e-05,2.40454127e-05
-1.8,7.50706629e-08,6.74880164e-07,2.39656248e-06,9.33003733e-06,1.67728765e-05,2.35022459e-05
-1.85,7.44539817e-08,6.6168025e-07,2.23647413e-06,8.77247584e-06,1.62178884e-05,2.2961073e-05
-1.9,7.38613084e-08,6.49178761e-07,2.11532961e-06,8.22064354e-06,1.56653067e-05,2.24218903e-05
-1.95,7.32913645e-08,6.37312177e-07,2.02030906e-06,7.67588931e-06,1.51151637e-05,2.18846952e-05
-2.0,7.27429641e-08,6.26026823e-07,1.94255264e-06,7.14022304e-06,1.45675037e-05,2.13494863e-05
-2.05,7.22150046e-08,6.15276526e-07,1.87642357e-06,6.61663506e-06,1.40223858e-05,2.08162634e-05
-2.1,7.17064594e-08,6.05021e-07,1.81843908e-06,6.10951102e-06,1.34798901e-05,2.02850281e-05
-2.15,7.12163711e-08,5.95224691e-07,1.76643848e-06,5.6250576e-06,1.29401237e-05,1.9755784e-05
-2.2,7.07438451e-08,5.85855923e-07,1.71904815e-06,5.17146479e-06,1.24032315e-05,1.9228537e-05
-2.25,7.02880448e-08,5.76886268e-07,1.67536282e-06,4.75827012e-06,1.18694096e-05,1.87032959e-05
-2.3,6.98481863e-08,5.68290051e-07,1.63476036e-06,4.39438274e-06,1.13389261e-05,1.81800733e-05
-2.35,6.94235345e-08,5.60043961e-07,1.59679441e-06,4.08505204e-06,1.08121498e-05,1.76588862e-05
-2.4,6.90133993e-08,5.52126743e-07,1.56113119e-06,3.82952809e-06,1.02895927e-05,1.71397571e-05
-2.45,6.86171318e-08,5.44518942e-07,1.52751154e-06,3.62135237e-06,9.77197108e-06,1.66227159e-05
-2.5,6.82341215e-08,5.37202696e-07,1.49572765e-06,3.45107914e-06,9.26029435e-06,1.61078012e-05
-2.55,6.78637933e-08,5.30161554e-07,1.46560824e-06,3.30929265e-06,8.75598996e-06,1.55950633e-05
-2.6,6.75056051e-08,5.23380331e-07,1.43700896e-06,3.188314e-06,8.26107395e-06,1.50845675e-05
-2.65,6.71590453e-08,5.16844976e-07,1.40980595e-06,3.0825515e-06,7.77836485e-06,1.45763986e-05
-2.7,6.68236306e-08,5.10542462e-07,1.38389134e-06,2.98816016e-06,7.31170966e-06,1.40706668e-05
-2.75,6.64989042e-08,5.04460688e-07,1.35917013e-06,2.90254663e-06,6.86612626e-06,1.35675167e-05
-2.8,6.61844339e-08,4.98588396e-07,1.33555786e-06,2.82395083e-06,6.44766844e-06,1.30671382e-05
-2.85,6.58798107e-08,4.92915093e-07,1.31297883e-06,2.75115102e-06,6.06275429e-06,1.25697828e-05
-2.9,6.55846469e-08,4.87430986e-07,1.29136481e-06,2.6832718e-06,5.71683645e-06,1.2075786e-05
-2.95,6.5298575e-08,4.82126921e-07,1.27065394e-06,2.61966314e-06,5.41277279e-06,1.15855977e-05
-3.0,6.50212463e-08,4.76994335e-07,1.25078991e-06,2.55982504e-06,5.149788e-06,1.10998255e-05
-3.05,6.47523299e-08,4.72025201e-07,1.2317213e-06,2.50336008e-06,4.92377657e-06,1.06192938e-05
-3.1,6.44915112e-08,4.67211991e-07,1.21340095e-06,2.44994334e-06,4.72875155e-06,1.01451228e-05
-3.15,6.42384916e-08,4.62547634e-07,1.19578549e-06,2.39930276e-06,4.55848696e-06,9.67883126e-06
-3.2,6.39929867e-08,4.58025486e-07,1.17883498e-06,2.35120608e-06,4.40758356e-06,9.22245927e-06
-3.25,6.37547261e-08,4.5363929e-07,1.16251251e-06,2.30545188e-06,4.27183166e-06,8.7786923e-06
-3.3,6.35234524e-08,4.49383155e-07,1.14678393e-06,2.26186329e-06,4.14813159e-06,8.35094147e-06
-3.35,6.32989204e-08,4.45251527e-07,1.13161755e-06,2.22028344e-06,4.03425156e-06,7.94329065e-06
-3.4,6.30808964e-08,4.41239163e-07,1.11698396e-06,2.18057211e-06,3.92858147e-06,7.56018966e-06
-3.45,6.28691577e-08,4.37341114e-07,1.10285576e-06,2.14260306e-06,3.82993864e-06,7.20580612e-06
-3.5,6.26634918e-08,4.33552698e-07,1.08920746e-06,2.10626209e-06,3.73743065e-06,6.88311774e-06
-3.55,6.24636961e-08,4.2986949e-07,1.07601524e-06,2.07144541e-06,3.65036324e-06,6.59308957e-06
-3.6,6.22695771e-08,4.26287299e-07,1.06325685e-06,2.0380583e-06,3.56817996e-06,6.33439452e-06
-3.65,6.20809502e-08,4.22802155e-07,1.05091149e-06,2.00601408e-06,3.49042262e-06,6.10387162e-06
-3.7,6.18976388e-08,4.19410294e-07,1.03895966e-06,1.97523316e-06,3.41670517e-06,5.89744747e-06
-3.75,6.17194744e-08,4.16108145e-07,1.02738309e-06,1.94564229e-06,3.34669621e-06,5.71102835e-06
-3.8,6.15462961e-08,4.12892319e-07,1.0161646e-06,1.91717392e-06,3.28010687e-06,5.54104794e-06
-3.85,6.13779497e-08,4.09759596e-07,1.00528808e-06,1.8897656e-06,3.2166824e-06,5.38465105e-06
-3.9,6.1214288e-08,4.06706918e-07,9.94738361e-07,1.86335948e-06,3.15619595e-06,5.23964997e-06
-3.95,6.10551702e-08,4.03731374e-07,9.84501152e-07,1.83790193e-06,3.09844402e-06,5.1043921e-06
-4.0,6.09004615e-08,4.00830195e-07,9.74562997e-07,1.81334308e-06,3.04324293e-06,4.97762084e-06
-4.05,6.07500329e-08,3.98000748e-07,9.64911197e-07,1.78963654e-06,2.99042608e-06,4.85836174e-06
-4.1,6.0603761e-08,3.95240522e-07,9.55533767e-07,1.76673909e-06,2.93984176e-06,4.74583941e-06
-4.15,6.04615277e-08,3.92547125e-07,9.4641938e-07,1.74461038e-06,2.89135128e-06,4.6394199e-06
-4.2,6.03232197e-08,3.89918278e-07,9.37557329e-07,1.72321271e-06,2.84482756e-06,4.53857195e-06
-4.25,6.01887287e-08,3.87351806e-07,9.2893748e-07,1.70251083e-06,2.80015378e-06,4.44284078e-06
-4.3,6.00579509e-08,3.84845635e-07,9.20550236e-07,1.68247171e-06,2.75722235e-06,4.35183041e-06
-4.35,5.99307866e-08,3.82397786e-07,9.12386504e-07,1.66306439e-06,2.71593395e-06,4.26519142e-06
-4.4,5.98071406e-08,3.80006368e-07,9.04437661e-07,1.6442598e-06,2.67619674e-06,4.18261222e-06
-4.45,5.96869216e-08,3.77669574e-07,8.96695526e-07,1.62603063e-06,2.63792565e-06,4.10381277e-06
-4.5,5.95700418e-08,3.7538568e-07,8.89152331e-07,1.60835121e-06,2.60104171e-06,4.02853982e-06
-4.55,5.94564172e-08,3.73153037e-07,8.81800694e-07,1.59119737e-06,2.56547157e-06,3.95656319e-06
-4.6,5.93459673e-08,3.70970067e-07,8.74633603e-07,1.57454633e-06,2.53114695e-06,3.88767286e-06
-4.65,5.92386149e-08,3.68835264e-07,8.67644384e-07,1.5583766e-06,2.49800423e-06,3.8216766e-06
-4.7,5.91342856e-08,3.66747183e-07,8.60826691e-07,1.54266792e-06,2.46598404e-06,3.75839797e-06
-4.75,5.90329085e-08,3.64704445e-07,8.54174479e-07,1.52740115e-06,2.43503092e-06,3.69767463e-06
-4.8,5.89344152e-08,3.62705728e-07,8.47681992e-07,1.51255817e-06,2.40509302e-06,3.63935693e-06
-4.85,5.88387401e-08,3.60749766e-07,8.41343746e-07,1.49812186e-06,2.37612175e-06,3.58330664e-06
-4.9,5.87458204e-08,3.58835348e-07,8.35154511e-07,1.48407602e-06,2.34807159e-06,3.52939586e-06
-4.95,5.86555956e-08,3.56961313e-07,8.291093e-07,1.47040529e-06,2.32089984e-06,3.4775061e-06
-5.0,5.85680076e-08,3.55126548e-07,8.23203357e-07,1.4570951e-06,2.29456636e-06,3.42752738e-06
-5.05,5.84830008e-08,3.53329987e-07,8.1743214e-07,1.44413165e-06,2.26903343e-06,3.37935749e-06
-5.1,5.84005215e-08,3.51570608e-07,8.11791313e-07,1.43150183e-06,2.24426557e-06,3.33290135e-06
-5.15,5.83205182e-08,3.49847431e-07,8.06276736e-07,1.41919319e-06,2.22022933e-06,3.28807035e-06
-5.2,5.82429414e-08,3.48159515e-07,8.00884453e-07,1.4071939e-06,2.19689319e-06,3.24478184e-06
-5.25,5.81677436e-08,3.46505958e-07,7.95610682e-07,1.3954927e-06,2.17422743e-06,3.20295866e-06
-5.3,5.80948789e-08,3.44885895e-07,7.90451809e-07,1.38407891e-06,2.15220397e-06,3.16252864e-06
-5.35,5.80243034e-08,3.43298495e-07,7.85404378e-07,1.37294233e-06,2.13079627e-06,3.12342425e-06
-5.4,5.79559745e-08,3.4174296e-07,7.80465081e-07,1.36207328e-06,2.10997924e-06,3.08558223e-06
-5.45,5.78898517e-08,3.40218524e-07,7.75630755e-07,1.35146251e-06,2.08972914e-06,3.04894324e-06
-5.5,5.78258954e-08,3.38724452e-07,7.70898373e-07,1.34110122e-06,2.07002348e-06,3.01345159e-06
-5.55,5.7764068e-08,3.37260036e-07,7.66265035e-07,1.33098101e-06,2.05084095e-06,2.97905494e-06
-5.6,5.7704333e-08,3.35824597e-07,7.61727967e-07,1.32109389e-06,2.03216134e-06,2.94570408e-06
-5.65,5.76466553e-08,3.34417481e-07,7.57284508e-07,1.31143222e-06,2.01396547e-06,2.91335266e-06
-5.7,5.75910009e-08,3.33038061e-07,7.52932112e-07,1.3019887e-06,1.99623515e-06,2.88195704e-06
-5.75,5.75373374e-08,3.31685732e-07,7.48668339e-07,1.29275638e-06,1.97895308e-06,2.85147606e-06
-5.8,5.74856331e-08,3.30359913e-07,7.44490849e-07,1.28372861e-06,1.96210283e-06,2.82187089e-06
-5.85,5.74358576e-08,3.29060044e-07,7.40397399e-07,1.27489903e-06,1.94566876e-06,2.79310485e-06
-5.9,5.73879817e-08,3.27785587e-07,7.36385838e-07,1.26626159e-06,1.92963601e-06,2.76514326e-06
-5.95,5.7341977e-08,3.26536023e-07,7.32454102e-07,1.25781046e-06,1.91399041e-06,2.73795334e-06
-6.0,5.7297816e-08,3.25310852e-07,7.28600212e-07,1.24954012e-06,1.89871849e-06,2.71150407e-06
-6.05,5.72554725e-08,3.24109593e-07,7.24822268e-07,1.24144524e-06,1.88380741e-06,2.68576603e-06
-6.1,5.72149206e-08,3.2293178e-07,7.21118446e-07,1.23352077e-06,1.86924492e-06,2.66071139e-06
-6.15,5.71761358e-08,3.21776967e-07,7.17486996e-07,1.22576182e-06,1.85501936e-06,2.63631373e-06
-6.2,5.71390939e-08,3.20644722e-07,7.13926234e-07,1.21816376e-06,1.84111959e-06,2.61254797e-06
-6.25,5.71037719e-08,3.19534627e-07,7.10434546e-07,1.21072214e-06,1.827535e-06,2.58939033e-06
-6.3,5.70701473e-08,3.18446281e-07,7.07010379e-07,1.20343268e-06,1.81425543e-06,2.56681818e-06
-6.35,5.70381983e-08,3.17379294e-07,7.0365224e-07,1.19629132e-06,1.80127122e-06,2.54481004e-06
-6.4,5.70079037e-08,3.16333291e-07,7.00358693e-07,1.18929412e-06,1.78857312e-06,2.52334547e-06
-6.45,5.69792432e-08,3.15307909e-07,6.97128358e-07,1.18243735e-06,1.7761523e-06,2.50240503e-06
-6.5,5.69521968e-08,3.14302797e-07,6.93959908e-07,1.1757174e-06,1.76400031e-06,2.4819702e-06
-6.55,5.69267452e-08,3.13317615e-07,6.90852063e-07,1.16913084e-06,1.7521091e-06,2.46202337e-06
-6.6,5.69028697e-08,3.12352036e-07,6.87803594e-07,1.16267435e-06,1.74047094e-06,2.44254774e-06
