vds,vb1,vb2,vb3,vb4,vb5,vb6
0.0,3.8790195e-07,1.9332443e-06,3.26807687e-06,4.45874707e-06,5.54884132e-06,6.56878845e-06
-0.05,2.92600846e-07,1.82626532e-06,3.16713586e-06,4.36388647e-06,5.45929546e-06,6.48378998e-06
-0.1,1.99048894e-07,1.7193286e-06,3.066224e-06,4.26905106e-06,5.36977233e-06,6.39881247e-06
-0.15,1.11832973e-07,1.61243791e-06,2.96534163e-06,4.17424089e-06,5.28027197e-06,6.31385593e-06
-0.2,4.55528347e-08,1.50559857e-06,2.86448913e-06,4.07945605e-06,5.1907944e-06,6.22892036e-06
-0.25,1.44771408e-08,1.39881826e-06,2.76366699e-06,3.98469664e-06,5.10133965e-06,6.14400578e-06
-0.3,5.08346809e-09,1.29210839e-06,2.66287579e-06,3.88996278e-06,5.01190775e-06,6.0591122e-06
-0.35,2.31092711e-09,1.1854862e-06,2.56211625e-06,3.79525458e-06,4.92249874e-06,5.97423963e-06
-0.4,1.3297773e-09,1.07897863e-06,2.46138928e-06,3.70057219e-06,4.83311266e-06,5.88938809e-06
-0.45,9.11837123e-10,9.72628966e-07,2.36069599e-06,3.60591578e-06,4.74374956e-06,5.8045576e-06
-0.5,7.05147121e-10,8.66509265e-07,2.26003778e-06,3.51128556e-06,4.6544095e-06,5.71974816e-06
-0.55,5.90245377e-10,7.60744039e-07,2.15941644e-06,3.41668175e-06,4.56509252e-06,5.63495981e-06
-0.6,5.2015581e-10,6.55557136e-07,2.05883425e-06,3.32210461e-06,4.47579871e-06,5.55019257e-06
-0.65,4.74076779e-10,5.51367148e-07,1.95829417e-06,3.22755445e-06,4.38652813e-06,5.46544646e-06
-0.7,4.41873818e-10,4.48983069e-07,1.85780007e-06,3.13303166e-06,4.29728087e-06,5.38072151e-06
-0.75,4.18209444e-10,3.49989042e-07,1.75735706e-06,3.03853664e-06,4.20805702e-06,5.29601775e-06
-0.8,4.00084832e-10,2.57381978e-07,1.65697202e-06,2.94406993e-06,4.11885669e-06,5.21133521e-06
-0.85,3.85720625e-10,1.76119016e-07,1.55665431e-06,2.84963213e-06,4.02968001e-06,5.12667395e-06
-0.9,3.74010509e-10,1.12102329e-07,1.45641682e-06,2.75522396e-06,3.94052711e-06,5.04203398e-06
-0.95,3.64238159e-10,6.83632305e-08,1.3562777e-06,2.6608463e-06,3.85139815e-06,4.95741537e-06
-1.0,3.55922967e-10,4.2199611e-08,1.25626289e-06,2.56650021e-06,3.7622933e-06,4.87281817e-06
-1.05,3.48732175e-10,2.7721019e-08,1.15641018e-06,2.47218698e-06,3.67321277e-06,4.78824243e-06
-1.1,3.42428845e-10,1.98203924e-08,1.05677587e-06,2.37790817e-06,3.58415679e-06,4.70368821e-06
-1.15,3.36839991e-10,1.5380804e-08,9.57445515e-07,2.28366573e-06,3.49512563e-06,4.6191556e-06
-1.2,3.31836442e-10,1.27584775e-08,8.58552255e-07,2.18946207e-06,3.40611958e-06,4.53464466e-06
-1.25,3.27319771e-10,1.11203936e-08,7.60307751e-07,2.09530018e-06,3.317139e-06,4.45015548e-06
-1.3,3.23213594e-10,1.00394426e-08,6.63055241e-07,2.00118387e-06,3.2281843e-06,4.36568816e-06
-1.35,3.19457643e-10,9.28911843e-09,5.67359092e-07,1.90711796e-06,3.13925595e-06,4.28124281e-06
-1.4,3.16003656e-10,8.74422349e-09,4.74148896e-07,1.81310866e-06,3.05035448e-06,4.19681954e-06
-1.45,3.12812451e-10,8.33255628e-09,3.84923943e-07,1.71916403e-06,2.96148054e-06,4.11241851e-06
-1.5,3.09851831e-10,8.01074847e-09,3.01957687e-07,1.62529465e-06,2.87263489e-06,4.02803984e-06
-1.55,3.07095037e-10,7.75174397e-09,2.28273753e-07,1.53151456e-06,2.78381839e-06,3.94368373e-06
-1.6,3.04519609e-10,7.53806448e-09,1.66995198e-07,1.43784265e-06,2.6950321e-06,3.85935034e-06
-1.65,3.02106518e-10,7.35805294e-09,1.19985878e-07,1.34430469e-06,2.60627726e-06,3.77503991e-06
-1.7,2.99839506e-10,7.20370489e-09,8.67279425e-08,1.25093628e-06,2.51755534e-06,3.69075267e-06
-1.75,2.97704577e-10,7.06937572e-09,6.46332811e-08,1.15778736e-06,2.42886813e-06,3.6064889e-06
-1.8,2.95689599e-10,6.95098701e-09,5.04442707e-08,1.06492911e-06,2.34021778e-06,3.52224889e-06
-1.85,2.93783985e-10,6.84552573e-09,4.13811399e-08,9.72464475e-07,2.25160691e-06,3.43803302e-06
-1.9,2.91978447e-10,6.75072024e-09,3.55001617e-08,8.80544599e-07,2.16303872e-06,3.35384168e-06
-1.95,2.90264789e-10,6.66482577e-09,3.15738702e-08,7.89394368e-07,2.07451715e-06,3.26967532e-06
-2.0,2.88635743e-10,6.58647928e-09,2.88604626e-08,6.99351706e-07,1.9860471e-06,3.18553448e-06
-2.05,2.87084837e-10,6.51459929e-09,2.69161095e-08,6.10926341e-07,1.89763469e-06,3.10141975e-06
-2.1,2.85606281e-10,6.4483155e-09,2.54728777e-08,5.2488192e-07,1.80928764e-06,3.01733183e-06
-2.15,2.84194875e-10,6.38691841e-09,2.43659324e-08,4.42334908e-07,1.72101577e-06,2.93327154e-06
-2.2,2.82845936e-10,6.32982279e-09,2.34914358e-08,3.64833824e-07,1.63283168e-06,2.8492398e-06
-2.25,2.81555225e-10,6.27654064e-09,2.27822823e-08,2.94327358e-07,1.54475173e-06,2.7652377e-06
-2.3,2.80318901e-10,6.22666106e-09,2.2193972e-08,2.32885187e-07,1.45679731e-06,2.68126654e-06
-2.35,2.79133467e-10,6.17983494e-09,2.16962427e-08,1.82116429e-07,1.36899677e-06,2.59732779e-06
-2.4,2.77995734e-10,6.13576323e-09,2.12680117e-08,1.42519231e-07,1.28138806e-06,2.51342325e-06
-2.45,2.76902785e-10,6.09418782e-09,2.08942524e-08,1.13233935e-07,1.19402254e-06,2.42955502e-06
-2.5,2.75851948e-10,6.05488443e-09,2.05640212e-08,9.24222239e-08,1.10697061e-06,2.34572561e-06
-2.55,2.74840764e-10,6.01765695e-09,2.02691865e-08,7.79543477e-08,1.02032978e-06,2.26193803e-06
-2.6,2.73866973e-10,5.98233287e-09,2.00035919e-08,6.79410802e-08,9.34236591e-07,2.17819592e-06
-2.65,2.72928486e-10,5.94875969e-09,1.97624942e-08,6.09437062e-08,8.48883923e-07,2.09450368e-06
-2.7,2.72023375e-10,5.91680191e-09,1.95421796e-08,5.59588554e-08,7.64545948e-07,2.0108667e-06
-2.75,2.71149854e-10,5.88633859e-09,1.93396966e-08,5.23185695e-08,6.81612902e-07,1.92729158e-06
-2.8,2.70306264e-10,5.85726137e-09,1.91526673e-08,4.95868635e-08,6.0063679e-07,1.8437865e-06
-2.85,2.69491067e-10,5.82947273e-09,1.8979151e-08,4.74799684e-08,5.22384505e-07,1.76036166e-06
-2.9,2.6870283e-10,5.80288466e-09,1.88175456e-08,4.58117985e-08,4.47883853e-07,1.67702988e-06
-2.95,2.67940218e-10,5.77741741e-09,1.86665144e-08,4.44586572e-08,3.78428337e-07,1.59380735e-06
-3.0,2.67201984e-10,5.75299854e-09,1.85249308e-08,4.33369133e-08,3.15485415e-07,1.51071479e-06
-3.05,2.66486967e-10,5.72956202e-09,1.83918371e-08,4.23889582e-08,2.60458473e-07,1.42777887e-06
-3.1,2.65794075e-10,5.70704753e-09,1.82664123e-08,4.15743349e-08,2.14325906e-07,1.34503425e-06
-3.15,2.6512229e-10,5.68539982e-09,1.81479472e-08,4.08640768e-08,1.7730916e-07,1.26252639e-06
-3.2,2.64470655e-10,5.66456816e-09,1.8035825e-08,4.02370482e-08,1.48777735e-07,1.18031545e-06
-3.25,2.63838273e-10,5.64450586e-09,1.7929506e-08,3.96775428e-08,1.27464071e-07,1.09848177e-06
-3.3,2.632243e-10,5.62516988e-09,1.78285148e-08,3.91736834e-08,1.11844377e-07,1.01713349e-06
-3.35,2.62627943e-10,5.60652044e-09,1.77324311e-08,3.87163383e-08,1.00471884e-07,9.36417266e-07
-3.4,2.62048455e-10,5.58852074e-09,1.76408807e-08,3.82983758e-08,9.2154348e-08,8.56532911e-07
-3.45,2.61485132e-10,5.57113664e-09,1.75535294e-08,3.79141443e-08,8.59923795e-08,7.7775327e-07
-3.5,2.60937311e-10,5.55433644e-09,1.74700774e-08,3.75591033e-08,8.13425803e-08,7.00449826e-07
-3.55,2.60404365e-10,5.53809064e-09,1.73902549e-08,3.72295582e-08,7.77577718e-08,6.25123313e-07
-3.6,2.59885703e-10,5.52237177e-09,1.73138176e-08,3.69224673e-08,7.49309743e-08,5.52434906e-07
-3.65,2.59380764e-10,5.50715419e-09,1.72405443e-08,3.66352985e-08,7.26517373e-08,4.83226713e-07
-3.7,2.58889021e-10,5.49241396e-09,1.71702338e-08,3.63659231e-08,7.07749405e-08,4.18510514e-07
-3.75,2.58409972e-10,5.47812869e-09,1.71027023e-08,3.61125348e-08,6.91994632e-08,3.59395868e-07
-3.8,2.57943142e-10,5.46427739e-09,1.70377819e-08,3.58735874e-08,6.7853903e-08,3.06935991e-07
-3.85,2.57488083e-10,5.4508404e-09,1.69753186e-08,3.56477477e-08,6.66870848e-08,2.61906858e-07
-3.9,2.57044367e-10,5.43779926e-09,1.69151707e-08,3.54338573e-08,6.5661749e-08,2.24594518e-07
-3.95,2.5661159e-10,5.42513662e-09,1.68572079e-08,3.52309033e-08,6.47503284e-08,1.94698246e-07
-4.0,2.56189367e-10,5.41283618e-09,1.68013098e-08,3.50379947e-08,6.39320992e-08,1.71409872e-07
-4.05,2.55777334e-10,5.40088257e-09,1.6747365e-08,3.48543432e-08,6.31912364e-08,1.53626279e-07
-4.1,2.55375142e-10,5.38926133e-09,1.66952704e-08,3.4679248e-08,6.25154719e-08,1.40185581e-07
-4.15,2.54982463e-10,5.37795881e-09,1.66449303e-08,3.45120831e-08,6.18951561e-08,1.30037551e-07
-4.2,2.54598981e-10,5.36696213e-09,1.65962555e-08,3.4352287e-08,6.13225937e-08,1.22322847e-07
-4.25,2.54224399e-10,5.35625912e-09,1.65491632e-08,3.41993538e-08,6.0791568e-08,1.16382582e-07
-4.3,2.5385843e-10,5.34583828e-09,1.65035761e-08,3.40528261e-08,6.02969947e-08,1.11731696e-07
-4.35,2.53500804e-10,5.33568873e-09,1.64594221e-08,3.39122892e-08,5.98346684e-08,1.08021304e-07
-4.4,2.53151262e-10,5.32580018e-09,1.64166336e-08,3.37773656e-08,5.94010735e-08,1.0500317e-07
-4.45,2.52809556e-10,5.31616287e-09,1.63751474e-08,3.36477109e-08,5.89932421e-08,1.02501053e-07
-4.5,2.52475452e-10,5.30676754e-09,1.63349044e-08,3.35230097e-08,5.8608646e-08,1.00389348e-07
-4.55,2.52148724e-10,5.29760542e-09,1.62958489e-08,3.3402973e-08,5.82451132e-08,9.85778212e-08
-4.6,2.51829159e-10,5.28866821e-09,1.62579287e-08,3.32873346e-08,5.79007639e-08,9.70009592e-08
-4.65,2.51516549e-10,5.27994798e-09,1.62210949e-08,3.31758494e-08,5.75739591e-08,9.56106056e-08
-4.7,2.512107e-10,5.27143722e-09,1.61853011e-08,3.3068291e-08,5.72632609e-08,9.4370884e-08
-4.75,2.50911424e-10,5.26312881e-09,1.61505038e-08,3.29644498e-08,5.69674002e-08,9.32546923e-08
-4.8,2.50618541e-10,5.25501595e-09,1.61166621e-08,3.28641317e-08,5.66852508e-08,9.22412656e-08
-4.85,2.5033188e-10,5.24709218e-09,1.60837371e-08,3.2767156e-08,5.64158081e-08,9.13144702e-08
-4.9,2.50051276e-10,5.23935134e-09,1.60516923e-08,3.26733549e-08,5.61581722e-08,9.04615975e-08
-4.95,2.49776571e-10,5.23178759e-09,1.60204931e-08,3.25825722e-08,5.59115333e-08,8.96725034e-08
-5.0,2.49507614e-10,5.22439533e-09,1.59901067e-08,3.24946617e-08,5.567516e-08,8.89389874e-08
-5.05,2.49244261e-10,5.21716926e-09,1.59605024e-08,3.24094873e-08,5.54483892e-08,8.82543398e-08
-5.1,2.48986373e-10,5.21010428e-09,1.59316506e-08,3.23269212e-08,5.5230618e-08,8.7613008e-08
-5.15,2.48733816e-10,5.20319555e-09,1.59035236e-08,3.2246844e-08,5.50212959e-08,8.70103478e-08
-5.2,2.48486463e-10,5.19643846e-09,1.58760951e-08,3.21691436e-08,5.48199198e-08,8.64424359e-08
-5.25,2.48244189e-10,5.18982858e-09,1.584934e-08,3.20937148e-08,5.46260278e-08,8.59059276e-08
-5.3,2.48006879e-10,5.1833617e-09,1.58232346e-08,3.20204587e-08,5.44391952e-08,8.53979472e-08
-5.35,2.47774417e-10,5.17703378e-09,1.57977563e-08,3.19492822e-08,5.42590306e-08,8.49160026e-08
-5.4,2.47546694e-10,5.17084097e-09,1.57728837e-08,3.18800977e-08,5.40851725e-08,8.44579187e-08
-5.45,2.47323606e-10,5.16477957e-09,1.57485963e-08,3.18128225e-08,5.39172862e-08,8.40217844e-08
-5.5,2.47105051e-10,5.15884606e-09,1.57248748e-08,3.17473788e-08,5.37550613e-08,8.36059104e-08
-5.55,2.46890932e-10,5.15303706e-09,1.57017007e-08,3.16836929e-08,5.35982096e-08,8.32087954e-08
-5.6,2.46681155e-10,5.14734932e-09,1.56790564e-08,3.16216953e-08,5.34464627e-08,8.28290978e-08
-5.65,2.46475629e-10,5.14177974e-09,1.56569251e-08,3.15613203e-08,5.32995707e-08,8.2465614e-08
-5.7,2.46274268e-10,5.13632535e-09,1.56352908e-08,3.15025056e-08,5.31573002e-08,8.21172587e-08
-5.75,2.46076986e-10,5.1309833e-09,1.56141383e-08,3.14451922e-08,5.30194332e-08,8.178305e-08
-5.8,2.45883702e-10,5.12575084e-09,1.5593453e-08,3.13893244e-08,5.28857653e-08,8.14620962e-08
-5.85,2.45694338e-10,5.12062535e-09,1.55732211e-08,3.13348491e-08,5.27561054e-08,8.11535846e-08
-5.9,2.45508818e-10,5.1156043e-09,1.55534293e-08,3.12817162e-08,5.2630274e-08,8.08567725e-08
-5.95,2.45327068e-10,5.11068528e-09,1.55340649e-08,3.12298778e-08,5.25081026e-08,8.05709794e-08
-6.0,2.45149018e-10,5.10586594e-09,1.55151159e-08,3.11792888e-08,5.23894325e-08,8.02955796e-08
-6.05,2.44974598e-10,5.10114404e-09,1.54965706e-08,3.1129906e-08,5.22741147e-08,8.00299967e-08
-6.1,2.44803742e-10,5.09651744e-09,1.5478418e-08,3.10816886e-08,5.21620087e-08,7.97736988e-08
-6.15,2.44636386e-10,5.09198405e-09,1.54606475e-08,3.10345975e-08,5.20529818e-08,7.95261934e-08
-6.2,2.44472467e-10,5.08754188e-09,1.54432489e-08,3.09885956e-08,5.19469091e-08,7.92870241e-08
-6.25,2.44311923e-10,5.08318899e-09,1.54262126e-08,3.09436478e-08,5.18436723e-08,7.90557669e-08
-6.3,2.44154698e-10,5.07892354e-09,1.54095293e-08,3.08997202e-08,5.174316e-08,7.88320273e-08
-6.35,2.44000732e-10,5.07474374e-09,1.539319e-08,3.0856781e-08,5.16452663e-08,7.86154378e-08
-6.4,2.43849971e-10,5.07064784e-09,1.53771861e-08,3.08147994e-08,5.15498913e-08,7.84056552e-08
-6.45,2.43702361e-10,5.0666342e-09,1.53615095e-08,3.07737464e-08,5.14569403e-08,7.82023588e-08
-6.5,2.4355785e-10,5.06270119e-09,1.53461523e-08,3.07335941e-08,5.13663234e-08,7.80052484e-08
-6.55,2.43416386e-10,5.05884727e-09,1.53311069e-08,3.0694316e-08,5.12779555e-08,7.78140427e-08
-6.6,2.43277919e-10,5.05507092e-09,1.53163661e-08,3.06558866e-08,5.11917557e-08,7.76284778e-08
