vds,vb1,vb2,vb3,vb4,vb5,vb6
0.0,8.28158253e-06,4.13113605e-05,6.89092879e-05,9.27615986e-05,0.000113948362,0.000133209943
-0.05,6.23911133e-06,3.9035441e-05,6.67848248e-05,9.07852066e-05,0.000112100362,0.000131471461
-0.1,4.23559784e-06,3.67612926e-05,6.46617438e-05,8.88100247e-05,0.000110253452,0.000129733975
-0.15,2.3711502e-06,3.44889916e-05,6.25400508e-05,8.68360537e-05,0.000108407631,0.000127997485
-0.2,9.62472622e-07,3.22186468e-05,6.04197529e-05,8.48632944e-05,0.0001065629,0.000126261992
-0.25,3.08718075e-07,2.99504156e-05,5.83008591e-05,8.28917481e-05,0.000104719257,0.000124527494
-0.3,1.12040933e-07,2.76845307e-05,5.61833804e-05,8.09214162e-05,0.000102876704,0.000122793991
-0.35,5.3702234e-08,2.54213445e-05,5.40673307e-05,7.89523005e-05,0.000101035239,0.000121061482
-0.4,3.27981176e-08,2.31614057e-05,5.19527274e-05,7.69844033e-05,9.91948642e-05,0.000119329969
-0.45,2.37135542e-08,2.09055944e-05,4.98395925e-05,7.50177272e-05,9.73555788e-05,0.000117599449
-0.5,1.9092499e-08,1.86553708e-05,4.77279536e-05,7.30522754e-05,9.55173834e-05,0.000115869924
-0.55,1.64296623e-08,1.64132483e-05,4.56178462e-05,7.10880519e-05,9.36802786e-05,0.000114141392
-0.6,1.47355286e-08,1.41837269e-05,4.35093158e-05,6.91250613e-05,9.1844265e-05,0.000112413854
-0.65,1.35694046e-08,1.19751857e-05,4.14024217e-05,6.71633092e-05,9.00093435e-05,0.00011068731
-0.7,1.27149769e-08,9.80375901e-06,3.92972413e-05,6.52028023e-05,8.81755151e-05,0.000108961759
-0.75,1.20572262e-08,7.70099113e-06,3.71938776e-05,6.32435485e-05,8.63427811e-05,0.000107237202
-0.8,1.15307563e-08,5.72678011e-06,3.50924686e-05,6.12855577e-05,8.45111429e-05,0.000105513638
-0.85,1.10962022e-08,3.98169075e-06,3.29932021e-05,5.93288413e-05,8.26806025e-05,0.000103791068
-0.9,1.07286729e-08,2.59005686e-06,3.08963375e-05,5.73734134e-05,8.08511619e-05,0.000102069493
-0.95,1.04117397e-08,1.62410049e-06,2.88022386e-05,5.5419291e-05,7.90228236e-05,0.000100348911
-1.0,1.01341429e-08,1.0371076e-06,2.67114249e-05,5.34664949e-05,7.71955906e-05,9.86293252e-05
-1.05,9.88790513e-09,7.0767698e-07,2.46246523e-05,5.15150504e-05,7.53694664e-05,9.69107343e-05
-1.1,9.66720617e-09,5.25310881e-07,2.25430436e-05,4.95649886e-05,7.3544455e-05,9.51931396e-05
-1.15,9.46768776e-09,4.20968614e-07,2.04683024e-05,4.76163481e-05,7.1720561e-05,9.34765419e-05
-1.2,9.2860105e-09,3.57842912e-07,1.84030715e-05,4.5669177e-05,6.98977901e-05,9.17609422e-05
-1.25,9.11956299e-09,3.17193452e-07,1.63515427e-05,4.37235353e-05,6.80761488e-05,9.00463418e-05
-1.3,8.96626595e-09,2.89388034e-07,1.43204971e-05,4.17794993e-05,6.62556446e-05,8.83327419e-05
-1.35,8.82443707e-09,2.6930573e-07,1.23210646e-05,3.98371659e-05,6.44362864e-05,8.66201441e-05
-1.4,8.69269578e-09,2.54105216e-07,1.03715704e-05,3.78966599e-05,6.26180848e-05,8.49085505e-05
-1.45,8.56989479e-09,2.42138271e-07,8.50163378e-06,3.59581435e-05,6.0801052e-05,8.31979631e-05
-1.5,8.45506994e-09,2.32406618e-07,6.75647557e-06,3.40218295e-05,5.89852028e-05,8.14883844e-05
-1.55,8.34740279e-09,2.2428061e-07,5.19714231e-06,3.20880008e-05,5.71705544e-05,7.97798174e-05
-1.6,8.24619244e-09,2.17347915e-07,3.8886186e-06,3.01570378e-05,5.53571275e-05,7.80722653e-05
-1.65,8.15083378e-09,2.11329053e-07,2.87287832e-06,2.82294591e-05,5.35449468e-05,7.63657319e-05
-1.7,8.06080067e-09,2.06028538e-07,2.14420981e-06,2.63059813e-05,5.17340419e-05,7.46602216e-05
-1.75,7.97563264e-09,2.01305665e-07,1.65252273e-06,2.43876091e-05,4.99244486e-05,7.29557394e-05
-1.8,7.89492433e-09,1.97056501e-07,1.33107033e-06,2.24757735e-05,4.81162101e-05,7.12522911e-05
-1.85,7.81831703e-09,1.93202456e-07,1.12127957e-06,2.0572543e-05,4.63093794e-05,6.95498834e-05
-1.9,7.7454917e-09,1.89682839e-07,9.81514296e-07,1.8680953e-05,4.45040212e-05,6.78485239e-05
-1.95,7.67616339e-09,1.86449881e-07,8.85212368e-07,1.68055167e-05,4.27002157e-05,6.61482215e-05
-2.0,7.61007654e-09,1.83465347e-07,8.16208836e-07,1.49530123e-05,4.08980625e-05,6.44489863e-05
-2.05,7.54700107e-09,1.80698159e-07,7.64774877e-07,1.31336597e-05,3.90976864e-05,6.27508304e-05
-2.1,7.48672917e-09,1.78122714e-07,7.25000674e-07,1.13627671e-05,3.72992451e-05,6.10537674e-05
-2.15,7.42907251e-09,1.75717661e-07,6.93223077e-07,9.66272047e-06,3.55029395e-05,5.93578135e-05
-2.2,7.37385992e-09,1.73465004e-07,6.67112708e-07,8.06459712e-06,3.37090279e-05,5.76629873e-05
-2.25,7.32093539e-09,1.71349421e-07,6.45146599e-07,6.60758439e-06,3.19178457e-05,5.59693109e-05
-2.3,7.27015636e-09,1.69357758e-07,6.26300542e-07,5.33347084e-06,3.01298329e-05,5.42768103e-05
-2.35,7.22139228e-09,1.67478631e-07,6.09866489e-07,4.27504205e-06,2.83455726e-05,5.25855159e-05
-2.4,7.17452327e-09,1.65702117e-07,5.95341863e-07,3.44295429e-06,2.65658467e-05,5.08954642e-05
-2.45,7.12943906e-09,1.64019516e-07,5.8236095e-07,2.82055178e-06,2.47917154e-05,4.92066982e-05
-2.5,7.086038e-09,1.62423152e-07,5.70651387e-07,2.37126086e-06,2.30246331e-05,4.75192698e-05
-2.55,7.0442262e-09,1.60906218e-07,5.60005943e-07,2.05234269e-06,2.1266617e-05,4.58332413e-05
-2.6,7.0039168e-09,1.5946265e-07,5.5026382e-07,1.82567226e-06,1.95204952e-05,4.4148688e-05
-2.65,6.9650293e-09,1.58087021e-07,5.41297992e-07,1.66207658e-06,1.77902657e-05,4.24657015e-05
-2.7,6.92748897e-09,1.56774456e-07,5.3300647e-07,1.54110993e-06,1.60816138e-05,4.07843941e-05
-2.75,6.89122634e-09,1.55520558e-07,5.25306158e-07,1.44908387e-06,1.44026282e-05,3.91049043e-05
-2.8,6.85617673e-09,1.5432135e-07,5.18128451e-07,1.37700136e-06,1.27647324e-05,3.74274036e-05
-2.85,6.82227984e-09,1.53173221e-07,5.11416029e-07,1.31895565e-06,1.11837406e-05,3.57521067e-05
-2.9,6.78947937e-09,1.52072886e-07,5.05120487e-07,1.27103161e-06,9.68071136e-06,3.4079284e-05
-2.95,6.7577227e-09,1.51017344e-07,4.99200556e-07,1.23059277e-06,8.2818611e-06,3.24092789e-05
-3.0,6.72696059e-09,1.50003851e-07,4.93620741e-07,1.195829e-06,7.01641216e-06,3.07425313e-05
-3.05,6.69714692e-09,1.49029891e-07,4.88350281e-07,1.16547101e-06,5.91149321e-06,2.90796092e-05
-3.1,6.6682384e-09,1.48093147e-07,4.83362325e-07,1.13860927e-06,4.98486471e-06,2.74212537e-05
-3.15,6.64019444e-09,1.4719149e-07,4.78633289e-07,1.11457792e-06,4.23877682e-06,2.57684394e-05
-3.2,6.61297684e-09,1.46322952e-07,4.7414234e-07,1.09287927e-06,3.65893047e-06,2.41224601e-05
-3.25,6.5865497e-09,1.45485714e-07,4.69870978e-07,1.07313388e-06,3.21938086e-06,2.24850489e-05
-3.3,6.5608792e-09,1.4467809e-07,4.65802697e-07,1.0550471e-06,2.89011594e-06,2.08585447e-05
-3.35,6.53593349e-09,1.43898518e-07,4.61922705e-07,1.03838612e-06,2.64324472e-06,1.92461254e-05
-3.4,6.51168252e-09,1.43145545e-07,4.58217696e-07,1.02296406e-06,2.45605794e-06,1.76521265e-05
-3.45,6.48809792e-09,1.42417818e-07,4.54675656e-07,1.00862871e-06,2.31151446e-06,1.60824663e-05
-3.5,6.4651529e-09,1.41714078e-07,4.512857e-07,9.95254486e-07,2.19742208e-06,1.45451831e-05
-3.55,6.44282214e-09,1.41033149e-07,4.48037938e-07,9.82736481e-07,2.10526765e-06,1.30510496e-05
-3.6,6.42108168e-09,1.40373932e-07,4.44923353e-07,9.70986144e-07,2.02915696e-06,1.16141412e-05
-3.65,6.39990884e-09,1.39735399e-07,4.41933708e-07,9.59927985e-07,1.96500007e-06,1.02520715e-05
-3.7,6.37928216e-09,1.39116589e-07,4.39061456e-07,9.49497084e-07,1.90993293e-06,8.98542009e-06
-3.75,6.35918126e-09,1.38516597e-07,4.36299667e-07,9.39637167e-07,1.86192265e-06,7.83578886e-06
-3.8,6.33958685e-09,1.37934576e-07,4.33641964e-07,9.30299107e-07,1.81950283e-06,6.82225397e-06
-3.85,6.3204806e-09,1.37369731e-07,4.31082468e-07,9.21439739e-07,1.78159695e-06,5.95691892e-06
-3.9,6.30184514e-09,1.36821313e-07,4.28615744e-07,9.13020913e-07,1.7474004e-06,5.24138536e-06
-3.95,6.28366392e-09,1.36288616e-07,4.26236764e-07,9.05008735e-07,1.71630086e-06,4.66608948e-06
-4.0,6.26592127e-09,1.35770977e-07,4.23940866e-07,8.97372946e-07,1.68782416e-06,4.21297202e-06
-4.05,6.24860223e-09,1.35267769e-07,4.2172372e-07,8.90086414e-07,1.66159698e-06,3.85999546e-06
-4.1,6.23169262e-09,1.34778401e-07,4.19581298e-07,8.83124713e-07,1.63732075e-06,3.58535665e-06
-4.15,6.2151789e-09,1.34302315e-07,4.17509849e-07,8.76465772e-07,1.61475317e-06,3.37010734e-06
-4.2,6.19904821e-09,1.33838984e-07,4.15505873e-07,8.70089583e-07,1.59369498e-06,3.19911079e-06
-4.25,6.18328828e-09,1.33387908e-07,4.13566103e-07,8.63977945e-07,1.57398029e-06,3.06090531e-06
-4.3,6.16788742e-09,1.32948616e-07,4.11687483e-07,8.58114263e-07,1.5554694e-06,2.947082e-06
-4.35,6.15283448e-09,1.32520658e-07,4.09867151e-07,8.52483356e-07,1.53804354e-06,2.85156889e-06
-4.4,6.13811883e-09,1.32103613e-07,4.08102425e-07,8.47071308e-07,1.52160075e-06,2.77000213e-06
-4.45,6.12373031e-09,1.31697078e-07,4.06390788e-07,8.4186533e-07,1.50605277e-06,2.69923588e-06
-4.5,6.10965925e-09,1.31300671e-07,4.04729877e-07,8.36853646e-07,1.49132269e-06,2.63698325e-06
-4.55,6.09589638e-09,1.3091403e-07,4.03117468e-07,8.32025386e-07,1.47734295e-06,2.58156191e-06
-4.6,6.08243286e-09,1.30536811e-07,4.01551469e-07,8.27370504e-07,1.46405394e-06,2.53171671e-06
-4.65,6.06926023e-09,1.30168689e-07,4.0002991e-07,8.2287969e-07,1.45140268e-06,2.48649679e-06
-4.7,6.05637042e-09,1.29809351e-07,3.98550934e-07,8.18544309e-07,1.43934191e-06,2.44517034e-06
-4.75,6.04375568e-09,1.29458502e-07,3.97112787e-07,8.14356336e-07,1.42782925e-06,2.4071652e-06
-4.8,6.03140861e-09,1.29115861e-07,3.95713815e-07,8.10308302e-07,1.41682657e-06,2.37202711e-06
-4.85,6.01932213e-09,1.2878116e-07,3.94352453e-07,8.06393243e-07,1.4062994e-06,2.33939013e-06
-4.9,6.00748944e-09,1.28454144e-07,3.93027221e-07,8.02604663e-07,1.39621648e-06,2.30895533e-06
-4.95,5.99590403e-09,1.2813457e-07,3.91736721e-07,7.98936489e-07,1.38654938e-06,2.2804754e-06
-5.0,5.98455967e-09,1.27822206e-07,3.90479627e-07,7.95383037e-07,1.37727216e-06,2.25374331e-06
-5.05,5.97345037e-09,1.2751683e-07,3.89254683e-07,7.91938984e-07,1.3683611e-06,2.22858387e-06
-5.1,5.96257039e-09,1.27218232e-07,3.88060697e-07,7.88599339e-07,1.35979444e-06,2.20484735e-06
-5.15,5.95191421e-09,1.26926211e-07,3.86896541e-07,7.85359412e-07,1.35155217e-06,2.18240466e-06
-5.2,5.94147655e-09,1.26640573e-07,3.85761143e-07,7.822148e-07,1.34361586e-06,2.1611436e-06
-5.25,5.93125232e-09,1.26361136e-07,3.84653483e-07,7.79161357e-07,1.3359685e-06,2.14096596e-06
-5.3,5.92123663e-09,1.26087723e-07,3.83572594e-07,7.76195182e-07,1.32859435e-06,2.12178516e-06
-5.35,5.91142478e-09,1.25820166e-07,3.82517557e-07,7.73312596e-07,1.32147883e-06,2.10352449e-06
-5.4,5.90181225e-09,1.25558305e-07,3.81487496e-07,7.70510132e-07,1.3146084e-06,2.08611558e-06
-5.45,5.89239467e-09,1.25301987e-07,3.80481579e-07,7.67784515e-07,1.30797047e-06,2.06949719e-06
-5.5,5.88316788e-09,1.25051063e-07,3.79499014e-07,7.65132652e-07,1.30155334e-06,2.05361427e-06
-5.55,5.87412781e-09,1.24805394e-07,3.78539046e-07,7.62551618e-07,1.29534607e-06,2.03841709e-06
-5.6,5.86527059e-09,1.24564843e-07,3.77600954e-07,7.60038646e-07,1.28933847e-06,2.02386058e-06
-5.65,5.85659246e-09,1.24329282e-07,3.76684055e-07,7.57591118e-07,1.28352099e-06,2.00990378e-06
-5.7,5.8480898e-09,1.24098586e-07,3.75787692e-07,7.55206552e-07,1.2778847e-06,1.99650932e-06
-5.75,5.83975911e-09,1.23872637e-07,3.74911244e-07,7.52882597e-07,1.27242125e-06,1.98364301e-06
-5.8,5.83159701e-09,1.2365132e-07,3.74054115e-07,7.50617023e-07,1.26712277e-06,1.97127352e-06
-5.85,5.82360025e-09,1.23434525e-07,3.73215735e-07,7.48407711e-07,1.2619819e-06,1.95937202e-06
-5.9,5.81576568e-09,1.23222147e-07,3.72395562e-07,7.46252653e-07,1.25699171e-06,1.94791198e-06
-5.95,5.80809024e-09,1.23014085e-07,3.71593078e-07,7.4414994e-07,1.25214567e-06,1.93686889e-06
-6.0,5.80057098e-09,1.22810242e-07,3.70807785e-07,7.42097756e-07,1.24743764e-06,1.92622008e-06
-6.05,5.79320505e-09,1.22610523e-07,3.7003921e-07,7.40094376e-07,1.24286182e-06,1.91594454e-06
-6.1,5.78598969e-09,1.2241484e-07,3.69286899e-07,7.38138158e-07,1.23841275e-06,1.90602278e-06
-6.15,5.7789222e-09,1.22223104e-07,3.68550417e-07,7.3622754e-07,1.23408527e-06,1.89643665e-06
-6.2,5.77199999e-09,1.22035233e-07,3.6782935e-07,7.34361034e-07,1.2298745e-06,1.88716927e-06
-6.25,5.76522054e-09,1.21851146e-07,3.67123297e-07,7.32537221e-07,1.22577584e-06,1.87820489e-06
-6.3,5.7585814e-09,1.21670766e-07,3.66431878e-07,7.30754752e-07,1.22178491e-06,1.86952881e-06
-6.35,5.75208019e-09,1.21494017e-07,3.65754727e-07,7.29012338e-07,1.21789759e-06,1.86112727e-06
-6.4,5.74571461e-09,1.21320828e-07,3.65091494e-07,7.2730875e-07,1.21410996e-06,1.8529874e-06
-6.45,5.7394824e-09,1.21151129e-07,3.6444184e-07,7.25642816e-07,1.21041831e-06,1.84509713e-06
-6.5,5.73338139e-09,1.20984852e-07,3.63805444e-07,7.24013418e-07,1.20681911e-06,1.83744513e-06
-6.55,5.72740945e-09,1.20821933e-07,3.63181996e-07,7.22419486e-07,1.20330902e-06,1.83002077e-06
-6.6,5.72156452e-09,1.20662308e-07,3.62571196e-07,7.2086e-07,1.19988487e-06,1.82281404e-06
