vds,vb1,vb2,vb3,vb4,vb5,vb6
0.0,1.65855689e-06,6.89671806e-06,1.14913674e-05,1.56251666e-05,1.94008413e-05,2.28918275e-05
-0.05,1.3446916e-06,6.54752407e-06,1.11513688e-05,1.52972036e-05,1.90846848e-05,2.25866741e-05
-0.1,1.03394354e-06,6.1992165e-06,1.08121084e-05,1.496988e-05,1.87690914e-05,2.22820225e-05
-0.15,7.30114154e-07,5.85180106e-06,1.04735852e-05,1.46431946e-05,1.845406e-05,2.19778716e-05
-0.2,4.45991641e-07,5.50528664e-06,1.01357981e-05,1.43171459e-05,1.81395894e-05,2.16742204e-05
-0.25,2.18131788e-07,5.15968676e-06,9.79874647e-06,1.39917328e-05,1.78256783e-05,2.13710679e-05
-0.3,9.07977118e-08,4.8150219e-06,9.46243001e-06,1.3666954e-05,1.75123257e-05,2.10684131e-05
-0.35,4.29871641e-08,4.47132311e-06,9.12684867e-06,1.33428082e-05,1.71995304e-05,2.07662551e-05
-0.4,2.68198606e-08,4.12863793e-06,8.79200291e-06,1.30192945e-05,1.68872912e-05,2.04645927e-05
-0.45,2.05344574e-08,3.78704051e-06,8.45789378e-06,1.26964118e-05,1.65756071e-05,2.0163425e-05
-0.5,1.75471194e-08,3.44664891e-06,8.1245231e-06,1.23741592e-05,1.6264477e-05,1.98627512e-05
-0.55,1.58393138e-08,3.10765635e-06,7.79189368e-06,1.20525359e-05,1.59538999e-05,1.95625701e-05
-0.6,1.4708101e-08,2.77038904e-06,7.4600096e-06,1.17315412e-05,1.56438748e-05,1.92628809e-05
-0.65,1.38734633e-08,2.43541686e-06,7.12887663e-06,1.14111746e-05,1.53344006e-05,1.89636827e-05
-0.7,1.32097983e-08,2.10377119e-06,6.79850283e-06,1.10914358e-05,1.50254766e-05,1.86649745e-05
-0.75,1.26547199e-08,1.77737887e-06,6.46889931e-06,1.07723247e-05,1.47171017e-05,1.83667555e-05
-0.8,1.21743835e-08,1.45990692e-06,6.1400814e-06,1.04538414e-05,1.44092752e-05,1.80690247e-05
-0.85,1.17489543e-08,1.15823443e-06,5.81207026e-06,1.01359863e-05,1.41019963e-05,1.77717813e-05
-0.9,1.13659901e-08,8.84219269e-07,5.48489535e-06,9.81876054e-06,1.37952643e-05,1.74750246e-05
-0.95,1.10172052e-08,6.54250355e-07,5.15859795e-06,9.50216533e-06,1.34890785e-05,1.71787536e-05
-1.0,1.06967879e-08,4.82046765e-07,4.8332367e-06,9.18620269e-06,1.31834386e-05,1.68829676e-05
-1.05,1.04004754e-08,3.67768185e-07,4.50889599e-06,8.87087539e-06,1.2878344e-05,1.65876658e-05
-1.1,1.01250208e-08,2.97760005e-07,4.18569938e-06,8.55618712e-06,1.25737944e-05,1.62928476e-05
-1.15,9.86787123e-09,2.55400738e-07,3.86383102e-06,8.2421428e-06,1.22697897e-05,1.59985122e-05
-1.2,9.6269665e-09,2.28609669e-07,3.54357094e-06,7.92874889e-06,1.19663299e-05,1.5704659e-05
-1.25,9.40060752e-09,2.1039611e-07,3.22535374e-06,7.61601385e-06,1.16634152e-05,1.54112874e-05
-1.3,9.1873679e-09,1.97047694e-07,2.90986782e-06,7.30394874e-06,1.13610461e-05,1.51183968e-05
-1.35,8.9860325e-09,1.86613352e-07,2.59822289e-06,6.99256802e-06,1.10592232e-05,1.48259868e-05
-1.4,8.79555347e-09,1.78039618e-07,2.29222803e-06,6.68189073e-06,1.07579477e-05,1.4534057e-05
-1.45,8.61501801e-09,1.70732058e-07,1.99482696e-06,6.371942e-06,1.04572209e-05,1.42426069e-05
-1.5,8.44362417e-09,1.64337774e-07,1.71068507e-06,6.06275531e-06,1.01570449e-05,1.39516364e-05
-1.55,8.28066225e-09,1.58636024e-07,1.44670183e-06,5.7543756e-06,9.85742209e-06,1.36611452e-05
-1.6,8.12550032e-09,1.5348154e-07,1.21172998e-06,5.44686389e-06,9.55835576e-06,1.33711334e-05
-1.65,7.97757263e-09,1.48774079e-07,1.01443223e-06,5.14030391e-06,9.25985001e-06,1.30816009e-05
-1.7,7.83637035e-09,1.44441421e-07,8.59390995e-07,4.83481214e-06,8.96191005e-06,1.27925481e-05
-1.75,7.70143388e-09,1.40429523e-07,7.44383079e-07,4.53055274e-06,8.66454245e-06,1.25039753e-05
-1.8,7.57234661e-09,1.36696589e-07,6.61738923e-07,4.2277605e-06,8.36775548e-06,1.22158831e-05
-1.85,7.44872966e-09,1.33209376e-07,6.02293854e-07,3.92677615e-06,8.07155959e-06,1.19282724e-05
-1.9,7.33023736e-09,1.2994082e-07,5.58353861e-07,3.62810107e-06,7.77596797e-06,1.16411442e-05
-1.95,7.21655355e-09,1.26868448e-07,5.24531517e-07,3.33248196e-06,7.48099738e-06,1.13545e-05
-2.0,7.10738831e-09,1.23973297e-07,4.97377253e-07,3.04103987e-06,7.1866692e-06,1.10683416e-05
-2.05,7.00247516e-09,1.21239143e-07,4.74754544e-07,2.7554588e-06,6.89301088e-06,1.07826714e-05
-2.1,6.90156866e-09,1.18651951e-07,4.55339131e-07,2.47823812e-06,6.60005788e-06,1.0497492e-05
-2.15,6.80444228e-09,1.16199464e-07,4.38293185e-07,2.21296705e-06,6.30785641e-06,1.02128071e-05
-2.2,6.71088659e-09,1.1387089e-07,4.23069749e-07,1.96446949e-06,6.01646724e-06,9.92862094e-06
-2.25,6.62070757e-09,1.11656663e-07,4.09298516e-07,1.73850252e-06,5.72597099e-06,9.64493875e-06
-2.3,6.53372523e-09,1.09548254e-07,3.96719141e-07,1.5406521e-06,5.43647582e-06,9.36176699e-06
-2.35,6.44977232e-09,1.07538018e-07,3.85141789e-07,1.37451837e-06,5.14812836e-06,9.0791136e-06
-2.4,6.36869319e-09,1.05619071e-07,3.74423287e-07,1.24018187e-06,4.86112964e-06,8.7969883e-06
-2.45,6.2903428e-09,1.03785194e-07,3.6445236e-07,1.1341827e-06,4.57575836e-06,8.51540308e-06
-2.5,6.21458579e-09,1.02030742e-07,3.55140228e-07,1.05104101e-06,4.29240494e-06,8.23437279e-06
-2.55,6.1412957e-09,1.0035058e-07,3.46414455e-07,9.85092214e-07,4.01162116e-06,7.95391583e-06
-2.6,6.07035422e-09,9.8740023e-08,3.38214819e-07,9.31604087e-07,3.73419154e-06,7.67405521e-06
-2.65,6.00165056e-09,9.71947807e-08,3.30490447e-07,8.87069114e-07,3.46123267e-06,7.39481981e-06
-2.7,5.93508083e-09,9.57109197e-08,3.23197798e-07,8.49044854e-07,3.19432262e-06,7.11624612e-06
-2.75,5.87054752e-09,9.4284823e-08,3.16299184e-07,8.15872101e-07,2.9356483e-06,6.83838061e-06
-2.8,5.80795902e-09,9.29131585e-08,3.0976168e-07,7.86423912e-07,2.68812477e-06,6.56128286e-06
-2.85,5.74722917e-09,9.15928503e-08,3.03556295e-07,7.59923126e-07,2.45538239e-06,6.28502991e-06
-2.9,5.68827684e-09,9.03210538e-08,2.97657324e-07,7.3582073e-07,2.24146305e-06,6.00972229e-06
-2.95,5.63102563e-09,8.90951337e-08,2.92041846e-07,7.13717716e-07,2.05010524e-06,5.73549225e-06
-3.0,5.57540346e-09,8.79126449e-08,2.86689317e-07,6.93315447e-07,1.88373989e-06,5.46251539e-06
-3.05,5.5213423e-09,8.6771315e-08,2.81581243e-07,6.74383981e-07,1.74267449e-06,5.19102692e-06
-3.1,5.46877791e-09,8.5669029e-08,2.76700907e-07,6.56741618e-07,1.62500612e-06,4.92134447e-06
-3.15,5.41764954e-09,8.4603816e-08,2.72033146e-07,6.40241437e-07,1.52733088e-06,4.65389981e-06
-3.2,5.36789974e-09,8.35738367e-08,2.67564165e-07,6.24762259e-07,1.44576296e-06,4.38928262e-06
-3.25,5.3194741e-09,8.25773724e-08,2.63281375e-07,6.10202427e-07,1.37672234e-06,4.12829886e-06
-3.3,5.2723211e-09,8.16128153e-08,2.59173255e-07,5.96475435e-07,1.31729727e-06,3.87204478e-06
-3.35,5.2263919e-09,8.06786595e-08,2.55229243e-07,5.83506781e-07,1.26528289e-06,3.62199148e-06
-3.4,5.18164014e-09,7.9773493e-08,2.51439628e-07,5.71231652e-07,1.2190678e-06,3.38006211e-06
-3.45,5.13802186e-09,7.88959907e-08,2.47795465e-07,5.59593173e-07,1.17748695e-06,3.14866047e-06
-3.5,5.09549529e-09,7.80449073e-08,2.44288499e-07,5.48541075e-07,1.13969323e-06,2.93058292e-06
-3.55,5.05402073e-09,7.72190717e-08,2.40911097e-07,5.38030651e-07,1.10506083e-06,2.7287364e-06
-3.6,5.01356047e-09,7.64173816e-08,2.3765619e-07,5.28021922e-07,1.07311748e-06,2.54564067e-06
-3.65,4.9740786e-09,7.56387982e-08,2.34517219e-07,5.18478971e-07,1.04349823e-06,2.38283426e-06
-3.7,4.93554097e-09,7.4882342e-08,2.31488091e-07,5.09369395e-07,1.01591447e-06,2.24044976e-06
-3.75,4.89791505e-09,7.41470886e-08,2.28563137e-07,5.00663854e-07,9.90132933e-07,2.11720463e-06
-3.8,4.86116985e-09,7.34321647e-08,2.25737074e-07,4.92335693e-07,9.65961376e-07,2.01081481e-06
-3.85,4.82527584e-09,7.27367449e-08,2.23004974e-07,4.84360623e-07,9.43238687e-07,1.91858886e-06
-3.9,4.79020488e-09,7.20600484e-08,2.20362231e-07,4.76716455e-07,9.21827883e-07,1.83792594e-06
-3.95,4.75593008e-09,7.1401336e-08,2.17804539e-07,4.6938286e-07,9.01611062e-07,1.76659124e-06
-4.0,4.72242583e-09,7.07599075e-08,2.15327868e-07,4.62341178e-07,8.82485705e-07,1.70279406e-06
-4.05,4.68966765e-09,7.01350992e-08,2.12928435e-07,4.55574241e-07,8.64361882e-07,1.64515201e-06
-4.1,4.65763218e-09,6.95262816e-08,2.10602695e-07,4.49066219e-07,8.47160131e-07,1.59261316e-06
-4.15,4.62629708e-09,6.89328572e-08,2.08347316e-07,4.42802495e-07,8.3080979e-07,1.54437595e-06
-4.2,4.595641e-09,6.83542585e-08,2.06159163e-07,4.36769544e-07,8.15247687e-07,1.49982263e-06
-4.25,4.56564355e-09,6.77899467e-08,2.0403529e-07,4.30954832e-07,8.00417072e-07,1.45846909e-06
-4.3,4.53628521e-09,6.72394092e-08,2.01972917e-07,4.25346723e-07,7.86266759e-07,1.41992857e-06
-4.35,4.50754729e-09,6.67021585e-08,1.99969427e-07,4.19934404e-07,7.72750407e-07,1.3838862e-06
-4.4,4.47941192e-09,6.61777308e-08,1.98022348e-07,4.14707805e-07,7.59825925e-07,1.35008098e-06
-4.45,4.45186199e-09,6.56656846e-08,1.96129347e-07,4.09657543e-07,7.47454967e-07,1.31829311e-06
-4.5,4.42488109e-09,6.51655991e-08,1.94288217e-07,4.04774858e-07,7.35602508e-07,1.28833496e-06
-4.55,4.39845352e-09,6.46770736e-08,1.92496875e-07,4.00051564e-07,7.24236473e-07,1.26004444e-06
-4.6,4.37256422e-09,6.41997259e-08,1.90753344e-07,3.95480003e-07,7.13327425e-07,1.23328014e-06
-4.65,4.34719875e-09,6.37331915e-08,1.89055756e-07,3.91053001e-07,7.02848288e-07,1.20791767e-06
-4.7,4.32234325e-09,6.32771227e-08,1.87402338e-07,3.86763833e-07,6.92774111e-07,1.18384684e-06
-4.75,4.29798444e-09,6.28311875e-08,1.85791411e-07,3.82606184e-07,6.83081855e-07,1.16096945e-06
-4.8,4.27410957e-09,6.2395069e-08,1.8422138e-07,3.78574122e-07,6.73750216e-07,1.1391975e-06
-4.85,4.25070639e-09,6.19684644e-08,1.82690731e-07,3.74662068e-07,6.64759453e-07,1.11845183e-06
-4.9,4.22776312e-09,6.15510844e-08,1.81198026e-07,3.7086477e-07,6.56091253e-07,1.09866093e-06
-4.95,4.20526848e-09,6.11426524e-08,1.79741899e-07,3.6717728e-07,6.47728598e-07,1.07975996e-06
-5.0,4.18321159e-09,6.07429038e-08,1.7832105e-07,3.6359493e-07,6.39655652e-07,1.06168998e-06
-5.05,4.161582e-09,6.03515857e-08,1.76934243e-07,3.60113318e-07,6.3185766e-07,1.04439722e-06
-5.1,4.14036968e-09,5.9968456e-08,1.755803e-07,3.56728283e-07,6.24320854e-07,1.02783255e-06
-5.15,4.11956494e-09,5.95932827e-08,1.74258101e-07,3.53435894e-07,6.17032376e-07,1.01195093e-06
-5.2,4.09915849e-09,5.92258441e-08,1.72966578e-07,3.50232432e-07,6.09980197e-07,9.96711005e-07
-5.25,4.07914136e-09,5.88659273e-08,1.71704713e-07,3.47114377e-07,6.03153059e-07,9.82074725e-07
-5.3,4.05950491e-09,5.85133288e-08,1.70471536e-07,3.44078395e-07,5.96540406e-07,9.68007005e-07
-5.35,4.04024083e-09,5.81678531e-08,1.69266121e-07,3.41121325e-07,5.90132335e-07,9.54475445e-07
-5.4,4.02134109e-09,5.7829313e-08,1.68087585e-07,3.3824017e-07,5.83919545e-07,9.41450071e-07
-5.45,4.00279796e-09,5.74975287e-08,1.66935085e-07,3.35432086e-07,5.77893291e-07,9.2890311e-07
-5.5,3.98460397e-09,5.7172328e-08,1.65807815e-07,3.32694373e-07,5.72045345e-07,9.16808788e-07
-5.55,3.96675192e-09,5.68535453e-08,1.64705005e-07,3.30024466e-07,5.66367957e-07,9.05143156e-07
-5.6,3.94923485e-09,5.65410217e-08,1.63625921e-07,3.27419926e-07,5.60853821e-07,8.93883924e-07
-5.65,3.93204605e-09,5.62346046e-08,1.62569861e-07,3.24878434e-07,5.55496045e-07,8.83010325e-07
-5.7,3.91517901e-09,5.59341472e-08,1.6153615e-07,3.22397784e-07,5.50288121e-07,8.72502983e-07
-5.75,3.89862747e-09,5.56395087e-08,1.60524147e-07,3.19975878e-07,5.45223901e-07,8.62343798e-07
-5.8,3.88238534e-09,5.53505533e-08,1.59533237e-07,3.17610713e-07,5.40297571e-07,8.52515846e-07
-5.85,3.86644676e-09,5.50671508e-08,1.58562829e-07,3.15300387e-07,5.35503628e-07,8.43003279e-07
-5.9,3.85080603e-09,5.47891755e-08,1.5761236e-07,3.13043082e-07,5.30836862e-07,8.33791246e-07
-5.95,3.83545765e-09,5.45165066e-08,1.5668129e-07,3.10837068e-07,5.26292339e-07,8.24865814e-07
-6.0,3.82039627e-09,5.42490278e-08,1.55769101e-07,3.08680693e-07,5.21865378e-07,8.16213898e-07
-6.05,3.80561674e-09,5.3986627e-08,1.54875295e-07,3.06572382e-07,5.17551539e-07,8.07823196e-07
-6.1,3.79111402e-09,5.37291961e-08,1.53999399e-07,3.0451063e-07,5.13346609e-07,7.99682136e-07
-6.15,3.77688326e-09,5.34766308e-08,1.53140954e-07,3.02494001e-07,5.09246585e-07,7.9177982e-07
-6.2,3.76291972e-09,5.32288308e-08,1.52299523e-07,3.00521124e-07,5.05247665e-07,7.84105974e-07
-6.25,3.74921884e-09,5.2985699e-08,1.51474685e-07,2.98590686e-07,5.01346233e-07,7.76650909e-07
-6.3,3.73577614e-09,5.27471417e-08,1.50666036e-07,2.96701435e-07,4.9753885e-07,7.69405477e-07
-6.35,3.7225873e-09,5.25130686e-08,1.4987319e-07,2.94852173e-07,4.93822245e-07,7.62361037e-07
-6.4,3.70964811e-09,5.22833923e-08,1.49095772e-07,2.93041754e-07,4.90193301e-07,7.55509416e-07
-6.45,3.69695448e-09,5.20580284e-08,1.48333425e-07,2.9126908e-07,4.86649053e-07,7.48842886e-07
-6.5,3.68450243e-09,5.1836895e-08,1.47585805e-07,2.89533102e-07,4.83186672e-07,7.42354126e-07
-6.55,3.67228806e-09,5.16199133e-08,1.4685258e-07,2.87832816e-07,4.79803464e-07,7.36036204e-07
-6.6,3.66030761e-09,5.14070067e-08,1.46133431e-07,2.86167258e-07,4.76496859e-07,7.29882546e-07
