vds,vb1,vb2,vb3,vb4,vb5,vb6
0.0,2.49804894e-05,0.000111548634,0.000181472304,0.000240747633,0.000292648342,0.000339308995
-0.05,1.97259699e-05,0.000105742621,0.000175957565,0.000235523981,0.000287674955,0.000334545148
-0.1,1.45469893e-05,9.99587356e-05,0.000170461775,0.000230317138,0.000282716777,0.000329795278
-0.15,9.55335027e-06,9.4197017e-05,0.000164984862,0.000225127037,0.00027777375,0.00032505933
-0.2,5.12928284e-06,8.84575596e-05,0.00015952676,0.000219953611,0.000272845814,0.000320337252
-0.25,2.1372819e-06,8.27405405e-05,0.000154087404,0.000214796794,0.000267932908,0.000315628991
-0.3,8.62961769e-07,7.70462605e-05,0.000148666738,0.000209656522,0.000263034976,0.000310934493
-0.35,4.51480838e-07,7.13752097e-05,0.000143264709,0.000204532731,0.000258151959,0.000306253708
-0.4,3.07977209e-07,6.57281775e-05,0.000137881273,0.00019942536,0.000253283798,0.000301586582
-0.45,2.45970836e-07,6.01064381e-05,0.000132516397,0.000194334347,0.000248430439,0.000296933064
-0.5,2.12942176e-07,5.45120776e-05,0.000127170056,0.000189259633,0.000243591823,0.000292293103
-0.55,1.92176251e-07,4.89485867e-05,0.000121842247,0.000184201163,0.000238767896,0.000287666649
-0.6,1.77464427e-07,4.34219755e-05,0.000116532981,0.00017915888,0.000233958602,0.000283053651
-0.65,1.66154729e-07,3.79429344e-05,0.000111242302,0.000174132734,0.000229163888,0.000278454059
-0.7,1.56970419e-07,3.2531134e-05,0.000105970285,0.000169122674,0.0002243837,0.000273867824
-0.75,1.49230813e-07,2.72238306e-05,0.000100717059,0.000164128654,0.000219617985,0.000269294896
-0.8,1.42539954e-07,2.20924082e-05,9.54828151e-05,0.000159150635,0.000214866693,0.000264735226
-0.85,1.3664977e-07,1.72695462e-05,9.02678419e-05,0.000154188579,0.000210129772,0.000260188768
-0.9,1.31394792e-07,1.29744142e-05,8.50725586e-05,0.000149242455,0.000205407174,0.000255655472
-0.95,1.26658727e-07,9.47886866e-06,7.98975754e-05,0.000144312242,0.000200698851,0.000251135292
-1.0,1.22356234e-07,6.95313533e-06,7.4743782e-05,0.000139397926,0.000196004757,0.000246628181
-1.05,1.18422435e-07,5.3169279e-06,6.96124856e-05,0.000134499504,0.000191324846,0.000242134093
-1.1,1.14806555e-07,4.31277673e-06,6.450563e-05,0.000129616989,0.000186659076,0.000237652983
-1.15,1.11467912e-07,3.68863963e-06,5.94261498e-05,0.000124750411,0.000182007408,0.000233184807
-1.2,1.08373272e-07,3.27809226e-06,5.4378554e-05,0.000119899822,0.000177369802,0.00022872952
-1.25,1.05495045e-07,2.98827524e-06,4.93699051e-05,0.000115065306,0.000172746224,0.00022428708
-1.3,1.02810023e-07,2.76989469e-06,4.44114754e-05,0.000110246984,0.000168136643,0.000219857443
-1.35,1.00298462e-07,2.59647668e-06,3.95215512e-05,0.000105445026,0.000163541032,0.000215440571
-1.4,9.79434022e-08,2.45321247e-06,3.47300664e-05,0.000100659673,0.000158959367,0.000211036421
-1.45,9.5730161e-08,2.33137272e-06,3.00857451e-05,9.58912536e-05,0.000154391633,0.000206644955
-1.5,9.36459315e-08,2.22552064e-06,2.56653182e-05,9.11402206e-05,0.000149837819,0.000202266137
-1.55,9.16794751e-08,2.13208636e-06,2.15802414e-05,8.64071974e-05,0.000145297925,0.000197899929
-1.6,8.98208747e-08,2.04861029e-06,1.79682669e-05,8.16930455e-05,0.000140771959,0.000193546298
-1.65,8.80613357e-08,1.97332458e-06,1.49544665e-05,7.69989655e-05,0.000136259943,0.000189205211
-1.7,8.63930245e-08,1.90491153e-06,1.25911428e-05,7.23266456e-05,0.000131761913,0.000184876638
-1.75,8.4808935e-08,1.84235844e-06,1.0826881e-05,6.7678488e-05,0.000127277925,0.000180560552
-1.8,8.33027784e-08,1.78486676e-06,9.53854139e-06,6.30579545e-05,0.00012280806,0.000176256928
-1.85,8.18688904e-08,1.73179328e-06,8.59094733e-06,5.84701004e-05,0.000118352428,0.000171965744
-1.9,8.05021534e-08,1.68261056e-06,7.87469623e-06,5.39224046e-05,0.000113911178,0.000167686984
-1.95,7.91979303e-08,1.63687965e-06,7.31388748e-06,4.94260552e-05,0.000109484509,0.000163420635
-2.0,7.79520078e-08,1.5942306e-06,6.85941148e-06,4.49979052e-05,0.000105072686,0.000159166689
-2.05,7.67605485e-08,1.5543483e-06,6.48008561e-06,4.06633176e-05,0.000100676058,0.000154925145
-2.1,7.56200486e-08,1.51696189e-06,6.15589492e-06,3.64599137e-05,9.62950854e-05,0.00015069601
-2.15,7.45273019e-08,1.4818367e-06,5.87364583e-06,3.24414835e-05,9.19303824e-05,0.000146479299
-2.2,7.34793685e-08,1.44876799e-06,5.62434347e-06,2.86795833e-05,8.7582766e-05,0.000142275041
-2.25,7.24735471e-08,1.41757609e-06,5.40163508e-06,2.52580039e-05,8.32533337e-05,0.000138083274
-2.3,7.15073513e-08,1.38810242e-06,5.20087957e-06,2.22554128e-05,7.89435714e-05,0.000133904056
-2.35,7.05784878e-08,1.36020637e-06,5.01858071e-06,1.97191511e-05,7.46555088e-05,0.000129737462
-2.4,6.96848385e-08,1.3337627e-06,4.85203274e-06,1.76456994e-05,7.03919468e-05,0.000125583595
-2.45,6.88244433e-08,1.30865944e-06,4.69909257e-06,1.59836349e-05,6.6156789e-05,0.000121442585
-2.5,6.7995486e-08,1.28479609e-06,4.55802894e-06,1.46561671e-05,6.19555285e-05,0.000117314603
-2.55,6.71962809e-08,1.26208216e-06,4.42741977e-06,1.35854904e-05,5.77959591e-05,0.00011319987
-2.6,6.64252614e-08,1.24043589e-06,4.30608029e-06,1.27066056e-05,5.36891954e-05,0.000109098666
-2.65,6.56809695e-08,1.21978326e-06,4.1930115e-06,1.19705732e-05,4.96510886e-05,0.000105011353
-2.7,6.49620467e-08,1.200057e-06,4.08736234e-06,1.13423353e-05,4.57040518e-05,0.000100938397
-2.75,6.42672252e-08,1.18119587e-06,3.98840129e-06,1.07971624e-05,4.1879091e-05,9.68803989e-05
-2.8,6.35953209e-08,1.16314397e-06,3.89549478e-06,1.03175131e-05,3.82173248e-05,9.28381385e-05
-2.85,6.29452265e-08,1.14585018e-06,3.80809027e-06,9.89072947e-06,3.47694674e-05,8.88126348e-05
-2.9,6.23159052e-08,1.12926761e-06,3.72570306e-06,9.50746825e-06,3.15911054e-05,8.48052272e-05
-2.95,6.17063853e-08,1.11335321e-06,3.64790565e-06,9.16066533e-06,2.87324824e-05,8.08176901e-05
-3.0,6.11157552e-08,1.09806736e-06,3.57431919e-06,8.84485434e-06,2.62251339e-05,7.6852393e-05
-3.05,6.05431588e-08,1.08337352e-06,3.50460648e-06,8.55571467e-06,2.40721247e-05,7.29125249e-05
-3.1,5.99877916e-08,1.06923798e-06,3.43846621e-06,8.28976667e-06,2.22482646e-05,6.90024097e-05
-3.15,5.94488964e-08,1.05562951e-06,3.37562814e-06,8.04416191e-06,2.07098661e-05,6.51279453e-05
-3.2,5.89257606e-08,1.04251921e-06,3.3158491e-06,7.81653566e-06,1.94073775e-05,6.12972064e-05
-3.25,5.84177123e-08,1.02988027e-06,3.2589096e-06,7.60490087e-06,1.82946871e-05,5.75212452e-05
-3.3,5.79241181e-08,1.01768776e-06,3.20461096e-06,7.40757041e-06,1.73333523e-05,5.38150921e-05
-3.35,5.74443801e-08,1.00591849e-06,3.15277282e-06,7.22309875e-06,1.64931615e-05,5.01988682e-05
-3.4,5.69779334e-08,9.94550866e-07,3.10323108e-06,7.05023766e-06,1.5750991e-05,4.66987283e-05
-3.45,5.65242444e-08,9.83564736e-07,3.05583604e-06,6.88790174e-06,1.5089244e-05,4.33470403e-05
-3.5,5.60828081e-08,9.72941283e-07,3.01045086e-06,6.73514142e-06,1.44944425e-05,4.01808835e-05
-3.55,5.56531468e-08,9.62662915e-07,2.96695019e-06,6.59112143e-06,1.39561288e-05,3.723799e-05
-3.6,5.52348079e-08,9.52713164e-07,2.92521894e-06,6.45510338e-06,1.34660618e-05,3.45501957e-05
-3.65,5.48273626e-08,9.43076602e-07,2.88515128e-06,6.32643166e-06,1.30176428e-05,3.2136335e-05
-3.7,5.44304045e-08,9.33738755e-07,2.84664971e-06,6.20452175e-06,1.2605507e-05,2.99979013e-05
-3.75,5.40435479e-08,9.24686036e-07,2.80962423e-06,6.08885062e-06,1.2225233e-05,2.81198256e-05
-3.8,5.36664268e-08,9.15905678e-07,2.77399165e-06,5.97894862e-06,1.18731321e-05,2.64756656e-05
-3.85,5.32986935e-08,9.07385671e-07,2.73967492e-06,5.8743927e-06,1.15460932e-05,2.50341944e-05
-3.9,5.29400179e-08,8.99114709e-07,2.70660263e-06,5.77480067e-06,1.1241468e-05,2.37646391e-05
-3.95,5.2590086e-08,8.91082141e-07,2.67470843e-06,5.67982629e-06,1.09569832e-05,2.2639584e-05
-4.0,5.22485993e-08,8.83277922e-07,2.64393065e-06,5.58915505e-06,1.06906734e-05,2.16359382e-05
-4.05,5.19152739e-08,8.75692577e-07,2.61421184e-06,5.50250062e-06,1.0440828e-05,2.07347936e-05
-4.1,5.15898393e-08,8.68317155e-07,2.58549846e-06,5.41960169e-06,1.02059501e-05,1.99208284e-05
-4.15,5.12720381e-08,8.611432e-07,2.55774054e-06,5.34021926e-06,9.98472248e-06,1.91816258e-05
-4.2,5.09616252e-08,8.54162715e-07,2.53089134e-06,5.26413432e-06,9.77598109e-06,1.85070638e-05
-4.25,5.06583667e-08,8.47368134e-07,2.50490718e-06,5.19114574e-06,9.57869244e-06,1.78888203e-05
-4.3,5.036204e-08,8.40752293e-07,2.47974713e-06,5.12106851e-06,9.39193557e-06,1.73199875e-05
-4.35,5.00724324e-08,8.34308406e-07,2.45537282e-06,5.05373211e-06,9.21488677e-06,1.67947771e-05
-4.4,4.97893413e-08,8.2803004e-07,2.43174823e-06,4.98897914e-06,9.04680685e-06,1.63082964e-05
-4.45,4.95125731e-08,8.21911095e-07,2.40883954e-06,4.92666406e-06,8.88703045e-06,1.58563756e-05
-4.5,4.92419429e-08,8.15945782e-07,2.38661495e-06,4.86665208e-06,8.73495685e-06,1.54354352e-05
-4.55,4.89772743e-08,8.10128606e-07,2.36504454e-06,4.80881821e-06,8.59004227e-06,1.50423817e-05
-4.6,4.87183986e-08,8.04454347e-07,2.34410011e-06,4.75304635e-06,8.45179319e-06,1.46745263e-05
-4.65,4.84651545e-08,7.98918044e-07,2.3237551e-06,4.69922853e-06,8.31976062e-06,1.43295187e-05
-4.7,4.82173879e-08,7.93514982e-07,2.30398447e-06,4.64726422e-06,8.19353517e-06,1.40052947e-05
-4.75,4.79749511e-08,7.88240676e-07,2.28476455e-06,4.59705967e-06,8.07274273e-06,1.37000334e-05
-4.8,4.77377031e-08,7.83090858e-07,2.266073e-06,4.54852737e-06,7.95704071e-06,1.34121213e-05
-4.85,4.75055087e-08,7.78061467e-07,2.24788871e-06,4.50158554e-06,7.84611481e-06,1.31401241e-05
-4.9,4.72782384e-08,7.73148633e-07,2.23019169e-06,4.45615766e-06,7.73967614e-06,1.28827614e-05
-4.95,4.70557682e-08,7.6834867e-07,2.21296305e-06,4.41217207e-06,7.63745865e-06,1.26388872e-05
-5.0,4.68379793e-08,7.63658068e-07,2.19618489e-06,4.36956158e-06,7.53921697e-06,1.24074718e-05
-5.05,4.66247576e-08,7.59073476e-07,2.17984022e-06,4.32826313e-06,7.44472439e-06,1.21875883e-05
-5.1,4.64159939e-08,7.54591701e-07,2.16391299e-06,4.28821749e-06,7.35377113e-06,1.19783991e-05
-5.15,4.62115832e-08,7.50209695e-07,2.14838792e-06,4.24936898e-06,7.26616278e-06,1.1779146e-05
-5.2,4.60114248e-08,7.4592455e-07,2.13325055e-06,4.21166519e-06,7.18171894e-06,1.15891406e-05
-5.25,4.58154219e-08,7.41733489e-07,2.11848713e-06,4.17505677e-06,7.10027194e-06,1.14077569e-05
-5.3,4.56234815e-08,7.37633858e-07,2.1040846e-06,4.13949721e-06,7.02166578e-06,1.12344237e-05
-5.35,4.54355144e-08,7.33623124e-07,2.09003056e-06,4.10494263e-06,6.94575509e-06,1.10686195e-05
-5.4,4.52514347e-08,7.29698863e-07,2.0763132e-06,4.07135162e-06,6.87240428e-06,1.09098664e-05
-5.45,4.50711595e-08,7.25858759e-07,2.06292132e-06,4.03868507e-06,6.8014867e-06,1.07577265e-05
-5.5,4.48946094e-08,7.22100595e-07,2.04984423e-06,4.00690601e-06,6.73288397e-06,1.06117969e-05
-5.55,4.47217077e-08,7.18422251e-07,2.03707177e-06,3.97597945e-06,6.66648524e-06,1.04717072e-05
-5.6,4.45523806e-08,7.14821696e-07,2.02459426e-06,3.94587232e-06,6.60218668e-06,1.03371154e-05
-5.65,4.43865569e-08,7.11296986e-07,2.01240249e-06,3.91655327e-06,6.53989091e-06,1.02077059e-05
-5.7,4.42241679e-08,7.0784626e-07,2.00048766e-06,3.88799262e-06,6.47950648e-06,1.00831868e-05
-5.75,4.40651476e-08,7.04467731e-07,1.98884141e-06,3.86016223e-06,6.42094751e-06,9.96328735e-06
-5.8,4.39094319e-08,7.01159688e-07,1.97745575e-06,3.83303539e-06,6.36413318e-06,9.84775678e-06
-5.85,4.37569591e-08,6.97920489e-07,1.96632305e-06,3.8065868e-06,6.30898746e-06,9.7363619e-06
-5.9,4.36076695e-08,6.94748559e-07,1.95543604e-06,3.78079239e-06,6.2554387e-06,9.62888588e-06
-5.95,4.34615055e-08,6.91642385e-07,1.94478779e-06,3.75562934e-06,6.20341936e-06,9.52512673e-06
-6.0,4.33184113e-08,6.88600516e-07,1.93437166e-06,3.73107594e-06,6.15286574e-06,9.42489612e-06
-6.05,4.31783328e-08,6.85621554e-07,1.92418132e-06,3.70711158e-06,6.10371767e-06,9.32801823e-06
-6.1,4.30412179e-08,6.82704159e-07,1.91421071e-06,3.68371663e-06,6.05591833e-06,9.23432872e-06
-6.15,4.29070158e-08,6.79847041e-07,1.90445405e-06,3.66087245e-06,6.00941398e-06,9.14367383e-06
-6.2,4.27756775e-08,6.77048957e-07,1.8949058e-06,3.63856126e-06,5.96415382e-06,9.05590954e-06
-6.25,4.26471553e-08,6.74308713e-07,1.88556066e-06,3.61676617e-06,5.92008974e-06,8.97090083e-06
-6.3,4.25214031e-08,6.71625158e-07,1.87641357e-06,3.59547107e-06,5.87717619e-06,8.88852099e-06
-6.35,4.23983759e-08,6.68997183e-07,1.86745967e-06,3.57466063e-06,5.83537001e-06,8.808651e-06
-6.4,4.22780302e-08,6.66423719e-07,1.85869431e-06,3.55432021e-06,5.79463028e-06,8.73117896e-06
-6.45,4.21603236e-08,6.63903734e-07,1.85011305e-06,3.53443589e-06,5.75491819e-06,8.65599957e-06
-6.5,4.2045215e-08,6.61436232e-07,1.8417116e-06,3.51499437e-06,5.71619692e-06,8.58301368e-06
-6.55,4.19326642e-08,6.59020255e-07,1.83348588e-06,3.49598297e-06,5.67843151e-06,8.51212785e-06
-6.6,4.18226323e-08,6.56654871e-07,1.82543196e-06,3.47738957e-06,5.64158874e-06,8.44325395e-06
