vds,vb1,vb2,vb3,vb4,vb5,vb6
0.0,4.11784284e-06,2.04930007e-05,3.42169706e-05,4.61151648e-05,5.67162209e-05,6.63829248e-05
-0.05,3.10576832e-06,1.93648636e-05,3.31625193e-05,4.5132938e-05,5.57966485e-05,6.55167916e-05
-0.1,2.11274178e-06,1.8237594e-05,3.21087448e-05,4.41513042e-05,5.48776106e-05,6.46511479e-05
-0.15,1.18750009e-06,1.71112298e-05,3.10556499e-05,4.31702638e-05,5.39591071e-05,6.37859935e-05
-0.2,4.85023175e-07,1.59858247e-05,3.00032383e-05,4.21898173e-05,5.30411379e-05,6.29213283e-05
-0.25,1.56033964e-07,1.48614564e-05,2.89515144e-05,4.12099652e-05,5.21237031e-05,6.20571519e-05
-0.3,5.65195567e-08,1.373824e-05,2.79004837e-05,4.02307084e-05,5.12068025e-05,6.11934643e-05
-0.35,2.70110236e-08,1.26163495e-05,2.6850153e-05,3.92520477e-05,5.02904363e-05,6.03302652e-05
-0.4,1.64587392e-08,1.14960557e-05,2.58005312e-05,3.82739842e-05,4.93746046e-05,5.94675546e-05
-0.45,1.18819706e-08,1.03777929e-05,2.47516289e-05,3.72965194e-05,4.84593075e-05,5.86053324e-05
-0.5,9.55769521e-09,9.26228093e-06,2.370346e-05,3.63196547e-05,4.75445452e-05,5.77435983e-05
-0.55,8.22007611e-09,8.15075869e-06,2.2656042e-05,3.53433922e-05,4.6630318e-05,5.68823524e-05
-0.6,7.36990768e-09,7.04544264e-06,2.16093976e-05,3.43677342e-05,4.57166263e-05,5.60215945e-05
-0.65,6.78514943e-09,5.95045749e-06,2.05635561e-05,3.33926834e-05,4.48034704e-05,5.51613247e-05
-0.7,6.35693096e-09,4.87374152e-06,1.9518556e-05,3.24182433e-05,4.38908509e-05,5.4301543e-05
-0.75,6.02741592e-09,3.83081157e-06,1.84744482e-05,3.14444177e-05,4.29787685e-05,5.34422492e-05
-0.8,5.76374574e-09,2.85114649e-06,1.74313011e-05,3.04712116e-05,4.20672239e-05,5.25834436e-05
-0.85,5.54615441e-09,1.98433948e-06,1.63892078e-05,2.94986307e-05,4.11562181e-05,5.17251263e-05
-0.9,5.36215064e-09,1.29201906e-06,1.53482968e-05,2.8526682e-05,4.0245752e-05,5.08672972e-05
-0.95,5.20349378e-09,8.1055585e-07,1.43087482e-05,2.75553739e-05,3.9335827e-05,5.00099567e-05
-1.0,5.06453836e-09,5.17514706e-07,1.32708193e-05,2.65847168e-05,3.84264446e-05,4.9153105e-05
-1.05,4.94128595e-09,3.52920109e-07,1.22348843e-05,2.56147233e-05,3.75176064e-05,4.82967424e-05
-1.1,4.83082019e-09,2.61795083e-07,1.12014989e-05,2.46454089e-05,3.66093146e-05,4.74408692e-05
-1.15,4.73095782e-09,2.09674455e-07,1.0171506e-05,2.36767927e-05,3.57015714e-05,4.65854858e-05
-1.2,4.64002632e-09,1.78158007e-07,9.14621319e-06,2.27088986e-05,3.47943796e-05,4.57305928e-05
-1.25,4.55671801e-09,1.57873717e-07,8.1276936e-06,2.17417565e-05,3.38877425e-05,4.48761908e-05
-1.3,4.47999181e-09,1.44005111e-07,7.11930046e-06,2.07754043e-05,3.29816639e-05,4.40222805e-05
-1.35,4.40900548e-09,1.33992405e-07,6.12653665e-06,1.98098901e-05,3.20761482e-05,4.31688626e-05
-1.4,4.34306793e-09,1.26415918e-07,5.15846217e-06,1.8845276e-05,3.11712007e-05,4.23159382e-05
-1.45,4.28160488e-09,1.20452469e-07,4.22972395e-06,1.78816425e-05,3.02668275e-05,4.14635083e-05
-1.5,4.22413372e-09,1.15603692e-07,3.3626978e-06,1.69190953e-05,2.93630359e-05,4.06115742e-05
-1.55,4.17024484e-09,1.11555368e-07,2.58763109e-06,1.5957775e-05,2.84598346e-05,3.97601374e-05
-1.6,4.11958743e-09,1.08101803e-07,1.93680921e-06,1.49978705e-05,2.75572338e-05,3.89091994e-05
-1.65,4.07185866e-09,1.05103615e-07,1.43122722e-06,1.40396394e-05,2.66552459e-05,3.80587623e-05
-1.7,4.02679521e-09,1.02463339e-07,1.06827413e-06,1.30834374e-05,2.57538856e-05,3.72088281e-05
-1.75,3.98416662e-09,1.00110839e-07,8.23232287e-07,1.21297636e-05,2.48531707e-05,3.63593994e-05
-1.8,3.94377004e-09,9.79943156e-08,6.62983885e-07,1.11793284e-05,2.39531229e-05,3.55104792e-05
-1.85,3.90542594e-09,9.60746094e-08,5.58391639e-07,1.02331589e-05,2.30537684e-05,3.46620707e-05
-1.9,3.86897467e-09,9.4321481e-08,4.88714165e-07,9.2927619e-06,2.21551396e-05,3.38141778e-05
-1.95,3.83427362e-09,9.27111336e-08,4.40709539e-07,8.36037793e-06,2.12572764e-05,3.29668048e-05
-2.0,3.80119488e-09,9.12245199e-08,4.06316502e-07,7.43937165e-06,2.03602283e-05,3.2119957e-05
-2.05,3.76962333e-09,8.98461599e-08,3.80683016e-07,6.5348161e-06,1.94640577e-05,3.12736402e-05
-2.1,3.73945495e-09,8.85633012e-08,3.60861841e-07,5.65431031e-06,1.85688429e-05,3.04278614e-05
-2.15,3.7105955e-09,8.73653101e-08,3.45026373e-07,4.80896797e-06,1.76746841e-05,2.95826286e-05
-2.2,3.68295931e-09,8.62432223e-08,3.32015253e-07,4.01422129e-06,1.678171e-05,2.87379511e-05
-2.25,3.65646831e-09,8.51894077e-08,3.21069288e-07,3.28953857e-06,1.58900877e-05,2.78938399e-05
-2.3,3.63105114e-09,8.41973144e-08,3.1167799e-07,2.65569724e-06,1.50000362e-05,2.70503081e-05
-2.35,3.60664248e-09,8.32612728e-08,3.03488494e-07,2.12902535e-06,1.41118461e-05,2.62073708e-05
-2.4,3.58318232e-09,8.23763417e-08,2.9625036e-07,1.71487178e-06,1.32259068e-05,2.53650462e-05
-2.45,3.56061548e-09,8.15381871e-08,2.89781367e-07,1.40500747e-06,1.23427466e-05,2.45233558e-05
-2.5,3.53889109e-09,8.07429863e-08,2.83945814e-07,1.18127954e-06,1.14630899e-05,2.36823256e-05
-2.55,3.51796215e-09,7.99873492e-08,2.78640456e-07,1.02244438e-06,1.05879417e-05,2.28419866e-05
-2.6,3.49778519e-09,7.92682556e-08,2.73785183e-07,9.09536579e-07,9.71871083e-06,2.20023765e-05
-2.65,3.47831992e-09,7.85830027e-08,2.69316714e-07,8.28036866e-07,8.85738913e-06,2.11635411e-05
-2.7,3.45952895e-09,7.79291622e-08,2.6518424e-07,7.67766544e-07,8.00680899e-06,2.03255363e-05
-2.75,3.4413775e-09,7.73045445e-08,2.61346361e-07,7.2190978e-07,7.17100025e-06,1.94884314e-05
-2.8,3.4238332e-09,7.67071684e-08,2.577689e-07,6.85986327e-07,6.35565391e-06,1.8652312e-05
-2.85,3.40686586e-09,7.61352357e-08,2.54423301e-07,6.57054629e-07,5.56864801e-06,1.78172854e-05
-2.9,3.39044732e-09,7.55871097e-08,2.51285446e-07,6.33164916e-07,4.82047186e-06,1.69834867e-05
-2.95,3.37455123e-09,7.50612963e-08,2.48334774e-07,6.1300417e-07,4.12418152e-06,1.61510874e-05
-3.0,3.35915296e-09,7.45564285e-08,2.45553601e-07,5.95670878e-07,3.49432541e-06,1.53203072e-05
-3.05,3.3442294e-09,7.40712525e-08,2.42926599e-07,5.80532866e-07,2.94440234e-06,1.44914301e-05
-3.1,3.32975892e-09,7.36046156e-08,2.4044039e-07,5.67137124e-07,2.48323927e-06,1.36648263e-05
-3.15,3.31572117e-09,7.31554562e-08,2.38083222e-07,5.55151986e-07,2.11193762e-06,1.28409828e-05
-3.2,3.30209704e-09,7.27227943e-08,2.35844715e-07,5.4432953e-07,1.82336362e-06,1.20205464e-05
-3.25,3.28886857e-09,7.23057238e-08,2.33715649e-07,5.34480739e-07,1.60459469e-06,1.12043832e-05
-3.3,3.27601883e-09,7.19034054e-08,2.316878e-07,5.25458807e-07,1.44069229e-06,1.03936625e-05
-3.35,3.26353188e-09,7.15150605e-08,2.29753796e-07,5.17147736e-07,1.31777893e-06,9.58997295e-06
-3.4,3.25139266e-09,7.11399654e-08,2.27907006e-07,5.09454402e-07,1.22455794e-06,8.79548199e-06
-3.45,3.23958699e-09,7.07774467e-08,2.26141444e-07,5.02302958e-07,1.15255329e-06,8.01314841e-06
-3.5,3.22810146e-09,7.04268767e-08,2.24451684e-07,4.95630806e-07,1.09570101e-06,7.24699057e-06
-3.55,3.21692339e-09,7.00876698e-08,2.22832798e-07,4.89385662e-07,1.04976693e-06,6.50239311e-06
-3.6,3.20604078e-09,6.97592786e-08,2.21280292e-07,4.83523384e-07,1.01181925e-06,5.78638902e-06
-3.65,3.1954423e-09,6.94411912e-08,2.19790061e-07,4.78006339e-07,9.79823428e-07,5.10777509e-06
-3.7,3.18511718e-09,6.9132928e-08,2.18358344e-07,4.72802161e-07,9.52354564e-07,4.47682097e-06
-3.75,3.17505523e-09,6.88340393e-08,2.16981686e-07,4.67882792e-07,9.28401111e-07,3.90429256e-06
-3.8,3.16524681e-09,6.8544103e-08,2.15656909e-07,4.63223738e-07,9.07233265e-07,3.39967631e-06
-3.85,3.15568272e-09,6.82627225e-08,2.14381084e-07,4.58803473e-07,8.88315175e-07,2.96896174e-06
-3.9,3.14635428e-09,6.79895249e-08,2.13151501e-07,4.54602973e-07,8.71246238e-07,2.61289207e-06
-3.95,3.1372532e-09,6.7724159e-08,2.11965654e-07,4.50605335e-07,8.55721535e-07,2.32665065e-06
-4.0,3.12837164e-09,6.74662939e-08,2.1082122e-07,4.46795468e-07,8.41504894e-07,2.10120594e-06
-4.05,3.11970211e-09,6.72156177e-08,2.0971604e-07,4.4315984e-07,8.28410328e-07,1.92556677e-06
-4.1,3.1112375e-09,6.6971836e-08,2.08648107e-07,4.39686268e-07,8.1628906e-07,1.78887618e-06
-4.15,3.10297106e-09,6.67346707e-08,2.07615551e-07,4.36363744e-07,8.05020336e-07,1.68170852e-06
-4.2,3.09489632e-09,6.65038588e-08,2.06616629e-07,4.33182287e-07,7.94504827e-07,1.5965391e-06
-4.25,3.08700716e-09,6.6279152e-08,2.0564971e-07,4.3013282e-07,7.84659818e-07,1.52767234e-06
-4.3,3.07929772e-09,6.60603147e-08,2.04713272e-07,4.27207062e-07,7.75415659e-07,1.47093043e-06
-4.35,3.07176241e-09,6.58471243e-08,2.03805889e-07,4.24397442e-07,7.66713105e-07,1.4232967e-06
-4.4,3.06439592e-09,6.56393695e-08,2.02926224e-07,4.21697018e-07,7.58501297e-07,1.38260291e-06
-4.45,3.05719317e-09,6.543685e-08,2.02073021e-07,4.1909941e-07,7.50736215e-07,1.34728576e-06
-4.5,3.0501493e-09,6.52393759e-08,2.01245104e-07,4.16598742e-07,7.43379475e-07,1.31620853e-06
-4.55,3.04325968e-09,6.50467668e-08,2.00441363e-07,4.14189593e-07,7.36397379e-07,1.28853473e-06
-4.6,3.03651989e-09,6.48588513e-08,1.99660756e-07,4.1186695e-07,7.29760164e-07,1.26364012e-06
-4.65,3.02992568e-09,6.46754666e-08,1.98902301e-07,4.09626168e-07,7.23441401e-07,1.2410516e-06
-4.7,3.02347302e-09,6.44964579e-08,1.98165073e-07,4.07462941e-07,7.17417498e-07,1.22040495e-06
-4.75,3.01715802e-09,6.4321678e-08,1.97448196e-07,4.05373263e-07,7.11667305e-07,1.2014153e-06
-4.8,3.01097699e-09,6.41509867e-08,1.96750846e-07,4.03353408e-07,7.06171782e-07,1.1838564e-06
-4.85,3.00492638e-09,6.39842505e-08,1.96072244e-07,4.01399903e-07,7.00913722e-07,1.16754593e-06
-4.9,2.99900277e-09,6.38213422e-08,1.95411652e-07,3.99509505e-07,6.95877521e-07,1.15233491e-06
-4.95,2.99320293e-09,6.36621409e-08,1.94768372e-07,3.97679185e-07,6.91048986e-07,1.13810006e-06
-5.0,2.98752371e-09,6.35065309e-08,1.94141744e-07,3.95906107e-07,6.86415168e-07,1.12473812e-06
-5.05,2.98196213e-09,6.3354402e-08,1.93531141e-07,3.94187615e-07,6.81964218e-07,1.1121617e-06
-5.1,2.97651531e-09,6.32056492e-08,1.92935971e-07,3.92521219e-07,6.77685271e-07,1.10029612e-06
-5.15,2.97118049e-09,6.30601721e-08,1.92355669e-07,3.9090458e-07,6.73568338e-07,1.08907694e-06
-5.2,2.96595502e-09,6.29178748e-08,1.91789701e-07,3.89335499e-07,6.69604217e-07,1.07844817e-06
-5.25,2.96083636e-09,6.27786657e-08,1.9123756e-07,3.87811909e-07,6.65784412e-07,1.06836078e-06
-5.3,2.95582205e-09,6.26424574e-08,1.90698763e-07,3.86331862e-07,6.62101062e-07,1.05877154e-06
-5.35,2.95090974e-09,6.25091661e-08,1.90172853e-07,3.84893524e-07,6.58546887e-07,1.04964213e-06
-5.4,2.94609717e-09,6.23787118e-08,1.89659391e-07,3.83495164e-07,6.55115127e-07,1.04093842e-06
-5.45,2.94138217e-09,6.22510179e-08,1.89157965e-07,3.82135149e-07,6.51799497e-07,1.03262983e-06
-5.5,2.93676262e-09,6.21260111e-08,1.88668177e-07,3.80811934e-07,6.48594145e-07,1.02468883e-06
-5.55,2.9322365e-09,6.2003621e-08,1.88189653e-07,3.79524061e-07,6.45493614e-07,1.01709061e-06
-5.6,2.92780188e-09,6.18837806e-08,1.87722034e-07,3.78270149e-07,6.42492811e-07,1.00981263e-06
-5.65,2.92345687e-09,6.17664251e-08,1.87264977e-07,3.77048891e-07,6.39586971e-07,1.00283443e-06
-5.7,2.91919965e-09,6.16514929e-08,1.86818157e-07,3.7585905e-07,6.36771635e-07,9.96137344e-07
-5.75,2.91502847e-09,6.15389246e-08,1.86381263e-07,3.74699451e-07,6.34042624e-07,9.89704278e-07
-5.8,2.91094166e-09,6.14286632e-08,1.85953997e-07,3.73568982e-07,6.31396019e-07,9.83519574e-07
-5.85,2.90693756e-09,6.1320654e-08,1.85536077e-07,3.72466586e-07,6.28828135e-07,9.77568832e-07
-5.9,2.90301461e-09,6.12148447e-08,1.85127232e-07,3.71391261e-07,6.26335512e-07,9.71838787e-07
-5.95,2.89917128e-09,6.11111846e-08,1.84727202e-07,3.70342054e-07,6.23914891e-07,9.6631719e-07
-6.0,2.89540609e-09,6.10096254e-08,1.84335742e-07,3.69318059e-07,6.21563203e-07,9.6099271e-07
-6.05,2.8917176e-09,6.09101204e-08,1.83952613e-07,3.68318415e-07,6.19277556e-07,9.55854848e-07
-6.1,2.88810444e-09,6.08126246e-08,1.8357759e-07,3.67342303e-07,6.17055219e-07,9.50893855e-07
-6.15,2.88456527e-09,6.07170949e-08,1.83210457e-07,3.66388944e-07,6.14893616e-07,9.46100667e-07
-6.2,2.88109877e-09,6.06234897e-08,1.82851006e-07,3.65457594e-07,6.1279031e-07,9.41466843e-07
-6.25,2.87770369e-09,6.05317688e-08,1.82499038e-07,3.64547546e-07,6.10742999e-07,9.3698451e-07
-6.3,2.8743788e-09,6.04418937e-08,1.82154363e-07,3.63658126e-07,6.08749501e-07,9.32646317e-07
-6.35,2.87112291e-09,6.03538269e-08,1.81816799e-07,3.62788692e-07,6.06807754e-07,9.28445389e-07
-6.4,2.86793486e-09,6.02675326e-08,1.8148617e-07,3.61938629e-07,6.04915801e-07,9.24375289e-07
-6.45,2.86481354e-09,6.0182976e-08,1.8116231e-07,3.61107354e-07,6.03071788e-07,9.20429985e-07
-6.5,2.86175784e-09,6.01001236e-08,1.80845056e-07,3.60294308e-07,6.01273955e-07,9.16603814e-07
-6.55,2.85876671e-09,6.00189429e-08,1.80534255e-07,3.59498956e-07,5.99520633e-07,9.12891458e-07
-6.6,2.85583911e-09,5.99394026e-08,1.80229757e-07,3.58720791e-07,5.97810235e-07,9.09287916e-07
