vds,vb1,vb2,vb3,vb4,vb5,vb6
0.0,1.23946095e-07,6.17222614e-07,1.07091076e-06,1.49949677e-06,1.91262067e-06,2.31725823e-06
-0.05,9.40550863e-08,5.82887706e-07,1.03756267e-06,1.4673039e-06,1.88146362e-06,2.28698773e-06
-0.1,6.46725367e-08,5.4856273e-07,1.00422061e-06,1.4351161e-06,1.85031114e-06,2.25672148e-06
-0.15,3.7107149e-08,5.14248928e-07,9.70884682e-07,1.4029334e-06,1.81916324e-06,2.22645948e-06
-0.2,1.56292532e-08,4.79948065e-07,9.37555038e-07,1.37075583e-06,1.78801994e-06,2.19620173e-06
-0.25,5.06004774e-09,4.45662702e-07,9.04231843e-07,1.33858342e-06,1.75688124e-06,2.16594825e-06
-0.3,1.76401463e-09,4.11396631e-07,8.70915302e-07,1.30641622e-06,1.72574717e-06,2.13569903e-06
-0.35,7.9135661e-10,3.77155625e-07,8.3760567e-07,1.27425428e-06,1.69461773e-06,2.10545409e-06
-0.4,4.50488387e-10,3.42948714e-07,8.04303261e-07,1.24209764e-06,1.66349294e-06,2.07521343e-06
-0.45,3.06640972e-10,3.08790485e-07,7.71008468e-07,1.20994638e-06,1.63237283e-06,2.04497706e-06
-0.5,2.36009418e-10,2.74705322e-07,7.37721785e-07,1.17780056e-06,1.60125741e-06,2.01474499e-06
-0.55,1.96941979e-10,2.40735579e-07,7.04443844e-07,1.14566027e-06,1.57014671e-06,1.98451722e-06
-0.6,1.73190038e-10,2.06957815e-07,6.71175452e-07,1.11352561e-06,1.53904076e-06,1.95429378e-06
-0.65,1.57605803e-10,1.7351598e-07,6.3791766e-07,1.0813967e-06,1.50793958e-06,1.92407466e-06
-0.7,1.46725395e-10,1.40689546e-07,6.04671847e-07,1.04927366e-06,1.47684321e-06,1.89385989e-06
-0.75,1.38732248e-10,1.0902654e-07,5.71439847e-07,1.01715666e-06,1.44575168e-06,1.86364948e-06
-0.8,1.32609166e-10,7.95574008e-08,5.38224131e-07,9.85045891e-07,1.41466505e-06,1.83344343e-06
-0.85,1.27754173e-10,5.39495606e-08,5.05028078e-07,9.52941575e-07,1.38358334e-06,1.80324178e-06
-0.9,1.23793738e-10,3.40828895e-08,4.71856379e-07,9.20843983e-07,1.35250663e-06,1.77304453e-06
-0.95,1.20486357e-10,2.07470775e-08,4.38715668e-07,8.8875344e-07,1.32143496e-06,1.7428517e-06
-1.0,1.1767016e-10,1.28785763e-08,4.0561549e-07,8.5667034e-07,1.29036841e-06,1.71266332e-06
-1.05,1.15233142e-10,8.54980434e-09,3.72569865e-07,8.24595163e-07,1.25930706e-06,1.68247941e-06
-1.1,1.13095576e-10,6.18507158e-09,3.3959982e-07,7.925285e-07,1.228251e-06,1.6523e-06
-1.15,1.11199257e-10,4.84898419e-09,3.06737604e-07,7.6047108e-07,1.19720032e-06,1.62212512e-06
-1.2,1.09500712e-10,4.0537193e-09,2.74033809e-07,7.28423811e-07,1.16615515e-06,1.59195479e-06
-1.25,1.07966807e-10,3.55264231e-09,2.41569556e-07,6.96387836e-07,1.13511562e-06,1.56178906e-06
-1.3,1.06571814e-10,3.21904686e-09,2.09477367e-07,6.64364602e-07,1.10408189e-06,1.53162796e-06
-1.35,1.05295421e-10,2.98547083e-09,1.77976183e-07,6.32355961e-07,1.07305414e-06,1.50147154e-06
-1.4,1.04121352e-10,2.81444608e-09,1.47426395e-07,6.00364307e-07,1.04203259e-06,1.47131984e-06
-1.45,1.03036387e-10,2.6842539e-09,1.18402931e-07,5.68392768e-07,1.01101747e-06,1.44117293e-06
-1.5,1.0202965e-10,2.58178084e-09,9.17523924e-08,5.36445479e-07,9.80009096e-07,1.41103085e-06
-1.55,1.010921e-10,2.49880337e-09,6.85338127e-08,5.04527972e-07,9.49007799e-07,1.38089369e-06
-1.6,1.00216142e-10,2.42998181e-09,4.97130142e-08,4.72647748e-07,9.18013995e-07,1.35076151e-06
-1.65,9.93953345e-11,2.37173687e-09,3.56783449e-08,4.40815117e-07,8.87028172e-07,1.32063441e-06
-1.7,9.86241737e-11,2.32159855e-09,2.59914609e-08,4.09044466e-07,8.56050918e-07,1.29051247e-06
-1.75,9.78979172e-11,2.27781656e-09,1.96566573e-08,3.77356172e-07,8.25082942e-07,1.26039582e-06
-1.8,9.72124517e-11,2.23912025e-09,1.5609911e-08,3.45779548e-07,7.94125105e-07,1.23028458e-06
-1.85,9.65641864e-11,2.20456653e-09,1.30158834e-08,3.14357425e-07,7.63178461e-07,1.20017888e-06
-1.9,9.59499688e-11,2.1734412e-09,1.13163883e-08,2.83153282e-07,7.32244302e-07,1.1700789e-06
-1.95,9.53670162e-11,2.14519336e-09,1.01667402e-08,2.52262349e-07,7.01324236e-07,1.13998481e-06
-2.0,9.481286e-11,2.11939086e-09,9.36036678e-09,2.21828525e-07,6.70420265e-07,1.10989684e-06
-2.05,9.42853009e-11,2.09568949e-09,8.7736796e-09,1.9206905e-07,6.39534917e-07,1.07981522e-06
-2.1,9.37823707e-11,2.07381122e-09,8.33171862e-09,1.63306946e-07,6.08671398e-07,1.04974025e-06
-2.15,9.33023017e-11,2.05352864e-09,7.98802802e-09,1.36004529e-07,5.77833823e-07,1.01967226e-06
-2.2,9.28435004e-11,2.03465353e-09,7.71308547e-09,1.10775732e-07,5.47027518e-07,9.89611628e-07
-2.25,9.24045252e-11,2.01702852e-09,7.48763068e-09,8.83341829e-08,5.16259452e-07,9.59558814e-07
-2.3,9.19840687e-11,2.00052068e-09,7.29876609e-09,6.93358129e-08,4.85538837e-07,9.29514348e-07
-2.35,9.15809408e-11,1.98501684e-09,7.13763403e-09,5.41452241e-08,4.54877996e-07,8.99478859e-07
-2.4,9.11940559e-11,1.97041978e-09,6.99800331e-09,4.2668104e-08,4.24293595e-07,8.69453094e-07
-2.45,9.0822421e-11,1.95664544e-09,6.87538987e-09,3.43911154e-08,3.9380845e-07,8.39437944e-07
-2.5,9.04651256e-11,1.94362064e-09,6.76649766e-09,2.85963607e-08,3.6345415e-07,8.09434479e-07
-2.55,9.01213331e-11,1.93128124e-09,6.66885541e-09,2.45840304e-08,3.33274919e-07,7.79443988e-07
-2.6,8.97902729e-11,1.91957078e-09,6.58057589e-09,2.17920006e-08,3.03333267e-07,7.4946804e-07
-2.65,8.94712343e-11,1.90843924e-09,6.50019312e-09,1.98167233e-08,2.73718172e-07,7.19508548e-07
-2.7,8.91635598e-11,1.89784212e-09,6.4265503e-09,1.83858742e-08,2.4455665e-07,6.89567868e-07
-2.75,8.8866641e-11,1.88773966e-09,6.35872131e-09,1.73209744e-08,2.16029253e-07,6.59648915e-07
-2.8,8.85799132e-11,1.8780962e-09,6.2959548e-09,1.65060352e-08,1.88388811e-07,6.29755332e-07
-2.85,8.83028518e-11,1.86887962e-09,6.23763367e-09,1.58653479e-08,1.61978292e-07,5.99891696e-07
-2.9,8.80349687e-11,1.86006088e-09,6.18324547e-09,1.5348898e-08,1.37237214e-07,5.70063815e-07
-2.95,8.7775809e-11,1.85161367e-09,6.13236022e-09,1.49230991e-08,1.14677835e-07,5.40279115e-07
-3.0,8.75249481e-11,1.84351407e-09,6.08461376e-09,1.45649728e-08,9.48111032e-08,5.10547179e-07
-3.05,8.72819896e-11,1.83574026e-09,6.03969503e-09,1.4258486e-08,7.80232144e-08,4.80880487e-07
-3.1,8.70465623e-11,1.82827229e-09,5.99733627e-09,1.39922283e-08,6.44488447e-08,4.51295438e-07
-3.15,8.68183187e-11,1.82109188e-09,5.95730529e-09,1.3757919e-08,5.39172741e-08,4.21813788e-07
-3.2,8.65969328e-11,1.81418225e-09,5.91939944e-09,1.35494345e-08,4.60113254e-08,3.92464653e-07
-3.25,8.63820989e-11,1.80752792e-09,5.88344081e-09,1.33621639e-08,4.01989989e-08,3.63287335e-07
-3.3,8.61735295e-11,1.80111465e-09,5.84927233e-09,1.31925753e-08,3.59594518e-08,3.34335257e-07
-3.35,8.59709541e-11,1.79492925e-09,5.8167546e-09,1.30379195e-08,3.28558293e-08,3.05681417e-07
-3.4,8.57741184e-11,1.78895953e-09,5.78576338e-09,1.28960243e-08,3.05552932e-08,2.77425744e-07
-3.45,8.55827823e-11,1.78319415e-09,5.75618743e-09,1.27651487e-08,2.88185239e-08,2.49704616e-07
-3.5,8.53967199e-11,1.77762261e-09,5.72792674e-09,1.26438792e-08,2.74788341e-08,2.22702195e-07
-3.55,8.52157175e-11,1.77223513e-09,5.70089111e-09,1.25310545e-08,2.64217478e-08,1.96661867e-07
-3.6,8.50395735e-11,1.76702258e-09,5.67499886e-09,1.24257094e-08,2.55688197e-08,1.71893391e-07
-3.65,8.48680974e-11,1.76197646e-09,5.65017584e-09,1.2327034e-08,2.48659965e-08,1.48767712e-07
-3.7,8.47011086e-11,1.75708882e-09,5.6263545e-09,1.22343418e-08,2.42756401e-08,1.27688582e-07
-3.75,8.45384366e-11,1.75235223e-09,5.60347315e-09,1.21470462e-08,2.37711864e-08,1.09033558e-07
-3.8,8.43799196e-11,1.74775973e-09,5.58147531e-09,1.20646418e-08,2.33335986e-08,9.30717469e-08
-3.85,8.42254043e-11,1.74330477e-09,5.56030912e-09,1.19866903e-08,2.29490131e-08,7.98879907e-08
-3.9,8.40747454e-11,1.73898123e-09,5.53992691e-09,1.19128086e-08,2.2607166e-08,6.93532284e-08
-3.95,8.39278049e-11,1.73478336e-09,5.52028469e-09,1.18426604e-08,2.23003336e-08,6.11600437e-08
-4.0,8.37844517e-11,1.73070573e-09,5.50134185e-09,1.17759483e-08,2.20226107e-08,5.49035401e-08
-4.05,8.36445613e-11,1.72674323e-09,5.48306082e-09,1.17124083e-08,2.17694123e-08,5.01662516e-08
-4.1,8.35080155e-11,1.72289108e-09,5.46540674e-09,1.16518048e-08,2.15371261e-08,4.65764337e-08
-4.15,8.33747017e-11,1.71914472e-09,5.44834726e-09,1.15939265e-08,2.13228663e-08,4.38331408e-08
-4.2,8.32445127e-11,1.71549988e-09,5.43185227e-09,1.15385836e-08,2.11242975e-08,4.1707307e-08
-4.25,8.31173467e-11,1.71195252e-09,5.41589375e-09,1.14856045e-08,2.09395062e-08,4.00310624e-08
-4.3,8.29931064e-11,1.70849882e-09,5.40044554e-09,1.14348337e-08,2.07669072e-08,3.86839352e-08
-4.35,8.28716993e-11,1.70513515e-09,5.3854832e-09,1.138613e-08,2.06051731e-08,3.75802395e-08
-4.4,8.27530372e-11,1.70185811e-09,5.37098389e-09,1.13393644e-08,2.04531818e-08,3.66590671e-08
-4.45,8.26370358e-11,1.69866443e-09,5.35692622e-09,1.12944192e-08,2.03099759e-08,3.58768989e-08
-4.5,8.25236149e-11,1.69555106e-09,5.34329011e-09,1.12511865e-08,2.01747324e-08,3.52023597e-08
-4.55,8.24126976e-11,1.69251507e-09,5.33005674e-09,1.1209567e-08,2.0046738e-08,3.46125674e-08
-4.6,8.23042108e-11,1.6895537e-09,5.31720842e-09,1.11694695e-08,1.99253705e-08,3.40906141e-08
-4.65,8.21980845e-11,1.68666432e-09,5.30472852e-09,1.11308096e-08,1.98100836e-08,3.36238308e-08
-4.7,8.20942516e-11,1.68384443e-09,5.29260137e-09,1.10935095e-08,1.9700395e-08,3.32025879e-08
-4.75,8.19926482e-11,1.68109165e-09,5.2808122e-09,1.10574971e-08,1.95958763e-08,3.28194594e-08
-4.8,8.18932131e-11,1.67840374e-09,5.26934711e-09,1.10227052e-08,1.94961457e-08,3.24686378e-08
-4.85,8.17958876e-11,1.67577854e-09,5.25819296e-09,1.09890717e-08,1.94008609e-08,3.21455181e-08
-4.9,8.17006155e-11,1.67321401e-09,5.24733733e-09,1.09565387e-08,1.93097139e-08,3.18464007e-08
-4.95,8.16073431e-11,1.67070819e-09,5.2367685e-09,1.09250521e-08,1.92224265e-08,3.15682764e-08
-5.0,8.15160188e-11,1.66825924e-09,5.22647537e-09,1.08945615e-08,1.91387469e-08,3.1308668e-08
-5.05,8.14265932e-11,1.66586537e-09,5.21644743e-09,1.08650198e-08,1.90584457e-08,3.10655141e-08
-5.1,8.13390189e-11,1.66352491e-09,5.20667473e-09,1.08363828e-08,1.89813139e-08,3.08370817e-08
-5.15,8.12532503e-11,1.66123623e-09,5.19714784e-09,1.08086092e-08,1.89071605e-08,3.06218997e-08
-5.2,8.11692437e-11,1.65899781e-09,5.18785781e-09,1.07816602e-08,1.88358101e-08,3.04187087e-08
-5.25,8.10869572e-11,1.65680816e-09,5.17879615e-09,1.07554993e-08,1.87671017e-08,3.02264215e-08
-5.3,8.10063504e-11,1.65466589e-09,5.16995479e-09,1.07300924e-08,1.87008869e-08,3.00440929e-08
-5.35,8.09273846e-11,1.65256966e-09,5.16132608e-09,1.0705407e-08,1.86370286e-08,2.98708953e-08
-5.4,8.08500223e-11,1.65051817e-09,5.15290272e-09,1.0681413e-08,1.85754002e-08,2.97060999e-08
-5.45,8.07742278e-11,1.6485102e-09,5.1446778e-09,1.06580816e-08,1.85158841e-08,2.95490609e-08
-5.5,8.06999665e-11,1.64654458e-09,5.13664471e-09,1.06353858e-08,1.84583715e-08,2.93992031e-08
-5.55,8.0627205e-11,1.64462018e-09,5.12879719e-09,1.06133001e-08,1.84027608e-08,2.92560122e-08
-5.6,8.05559114e-11,1.64273591e-09,5.12112925e-09,1.05918004e-08,1.83489577e-08,2.91190257e-08
-5.65,8.04860546e-11,1.64089076e-09,5.1136352e-09,1.05708639e-08,1.8296874e-08,2.89878263e-08
-5.7,8.04176048e-11,1.63908371e-09,5.1063096e-09,1.05504689e-08,1.82464276e-08,2.88620363e-08
-5.75,8.03505333e-11,1.63731383e-09,5.09914728e-09,1.05305951e-08,1.81975414e-08,2.87413123e-08
-5.8,8.02848123e-11,1.63558021e-09,5.0921433e-09,1.05112231e-08,1.81501435e-08,2.86253413e-08
-5.85,8.02204148e-11,1.63388195e-09,5.08529292e-09,1.04923344e-08,1.81041662e-08,2.85138372e-08
-5.9,8.01573151e-11,1.63221824e-09,5.07859166e-09,1.04739117e-08,1.80595461e-08,2.84065377e-08
-5.95,8.00954879e-11,1.63058824e-09,5.07203519e-09,1.04559383e-08,1.80162237e-08,2.83032016e-08
-6.0,8.0034909e-11,1.6289912e-09,5.06561941e-09,1.04383985e-08,1.79741428e-08,2.8203607e-08
-6.05,7.99755549e-11,1.62742635e-09,5.05934037e-09,1.04212775e-08,1.79332508e-08,2.81075489e-08
-6.1,7.9917403e-11,1.62589299e-09,5.05319431e-09,1.04045609e-08,1.78934979e-08,2.80148375e-08
-6.15,7.9860431e-11,1.62439042e-09,5.04717763e-09,1.03882352e-08,1.78548372e-08,2.79252972e-08
-6.2,7.98046178e-11,1.62291797e-09,5.04128688e-09,1.03722876e-08,1.78172244e-08,2.78387647e-08
-6.25,7.97499426e-11,1.621475e-09,5.03551876e-09,1.03567058e-08,1.77806177e-08,2.77550883e-08
-6.3,7.96963852e-11,1.6200609e-09,5.02987008e-09,1.03414781e-08,1.77449775e-08,2.76741267e-08
-6.35,7.96439263e-11,1.61867505e-09,5.02433783e-09,1.03265934e-08,1.77102664e-08,2.75957478e-08
-6.4,7.95925468e-11,1.6173169e-09,5.01891908e-09,1.0312041e-08,1.76764489e-08,2.75198286e-08
-6.45,7.95422284e-11,1.61598587e-09,5.01361105e-09,1.02978108e-08,1.76434915e-08,2.74462536e-08
-6.5,7.94929531e-11,1.61468144e-09,5.00841105e-09,1.02838931e-08,1.76113624e-08,2.7374915e-08
-6.55,7.94447036e-11,1.61340309e-09,5.00331651e-09,1.02702787e-08,1.75800314e-08,2.73057115e-08
-6.6,7.93974629e-11,1.61215031e-09,4.99832495e-09,1.02569588e-08,1.75494697e-08,2.7238548e-08
