vds,vb1,vb2,vb3,vb4,vb5,vb6
0.0,7.96849608e-07,3.9138321e-06,6.5927931e-06,8.97363284e-06,1.11460085e-05,1.31720739e-05
-0.05,6.05187506e-07,3.69916223e-06,6.38994071e-06,8.78267664e-06,1.0965425e-05,1.30003366e-05
-0.1,4.16840787e-07,3.48464073e-06,6.18720315e-06,8.59182156e-06,1.07849333e-05,1.2828684e-05
-0.15,2.40071159e-07,3.27027477e-06,5.984581e-06,8.40106769e-06,1.06045334e-05,1.26571161e-05
-0.2,1.01916391e-07,3.05607446e-06,5.78207499e-06,8.21041515e-06,1.04242253e-05,1.2485633e-05
-0.25,3.34636224e-08,2.84205445e-06,5.57968598e-06,8.01986407e-06,1.0244009e-05,1.23142345e-05
-0.3,1.1991538e-08,2.62823633e-06,5.37741508e-06,7.82941463e-06,1.00638846e-05,1.21429207e-05
-0.35,5.62873447e-09,2.41465272e-06,5.17526362e-06,7.63906702e-06,9.88385207e-06,1.19716915e-05
-0.4,3.38140767e-09,2.20135428e-06,4.97323331e-06,7.44882148e-06,9.70391144e-06,1.1800547e-05
-0.45,2.41871488e-09,1.98842209e-06,4.77132626e-06,7.25867831e-06,9.52406278e-06,1.16294871e-05
-0.5,1.93478166e-09,1.77599024e-06,4.56954514e-06,7.06863784e-06,9.34430614e-06,1.14585118e-05
-0.55,1.65848355e-09,1.56428894e-06,4.36789337e-06,6.87870047e-06,9.1646416e-06,1.12876211e-05
-0.6,1.48392647e-09,1.353729e-06,4.16637533e-06,6.68886668e-06,8.98506925e-06,1.11168151e-05
-0.65,1.36439471e-09,1.14507296e-06,3.9649967e-06,6.49913704e-06,8.80558919e-06,1.09460938e-05
-0.7,1.27713944e-09,9.39785142e-07,3.7637649e-06,6.30951222e-06,8.62620156e-06,1.07754571e-05
-0.75,1.21014503e-09,7.40724999e-07,3.56268978e-06,6.11999305e-06,8.44690649e-06,1.06049051e-05
-0.8,1.15661816e-09,5.53335756e-07,3.36178455e-06,5.93058047e-06,8.26770417e-06,1.04344378e-05
-0.85,1.11248913e-09,3.86851829e-07,3.16106715e-06,5.74127565e-06,8.08859479e-06,1.02640552e-05
-0.9,1.07519501e-09,2.5299542e-07,2.96056236e-06,5.55207998e-06,7.90957858e-06,1.00937575e-05
-0.95,1.04305002e-09,1.59144845e-07,2.76030489e-06,5.36299514e-06,7.73065582e-06,9.92354462e-06
-1.0,1.01490211e-09,1.01623486e-07,2.5603443e-06,5.1740232e-06,7.55182681e-06,9.75341667e-06
-1.05,9.89937031e-10,6.91928973e-08,2.36075267e-06,4.98516664e-06,7.37309194e-06,9.58337371e-06
-1.1,9.67561888e-10,5.12247526e-08,2.161637e-06,4.79642854e-06,7.19445161e-06,9.41341584e-06
-1.15,9.47333452e-10,4.09577458e-08,1.96315957e-06,4.60781269e-06,7.01590632e-06,9.24354317e-06
-1.2,9.28912554e-10,3.47594368e-08,1.76557205e-06,4.4193238e-06,6.83745665e-06,9.07375581e-06
-1.25,9.1203424e-10,3.07763807e-08,1.56927342e-06,4.2309678e-06,6.65910326e-06,8.90405391e-06
-1.3,8.96487719e-10,2.8056461e-08,1.37490891e-06,4.04275216e-06,6.48084692e-06,8.73443763e-06
-1.35,8.82102549e-10,2.6094363e-08,1.18353727e-06,3.8546864e-06,6.30268855e-06,8.56490715e-06
-1.4,8.68738928e-10,2.46103155e-08,9.96901565e-07,3.66678277e-06,6.12462922e-06,8.39546267e-06
-1.45,8.56280711e-10,2.34423796e-08,8.17820004e-07,3.4790572e-06,5.94667017e-06,8.22610444e-06
-1.5,8.44630316e-10,2.24926738e-08,6.50599228e-07,3.29153057e-06,5.76881288e-06,8.05683274e-06
-1.55,8.33704925e-10,2.16995725e-08,5.0106496e-07,3.1042307e-06,5.59105912e-06,7.88764786e-06
-1.6,8.23433614e-10,2.10227829e-08,3.75444327e-07,2.91719496e-06,5.41341095e-06,7.71855017e-06
-1.65,8.13755156e-10,2.0435029e-08,2.7780176e-07,2.73047433e-06,5.23587086e-06,7.54954007e-06
-1.7,8.04616315e-10,1.99172523e-08,2.07658675e-07,2.54413933e-06,5.05844185e-06,7.38061802e-06
-1.75,7.95970494e-10,1.9455746e-08,1.60268165e-07,2.35828888e-06,4.88112749e-06,7.21178456e-06
-1.8,7.87776674e-10,1.90403911e-08,1.29250888e-07,2.17306397e-06,4.70393216e-06,7.04304028e-06
-1.85,7.79998548e-10,1.86635391e-08,1.0898636e-07,1.98866859e-06,4.52686117e-06,6.87438589e-06
-1.9,7.72603826e-10,1.83192846e-08,9.54704307e-08,1.80540226e-06,4.34992103e-06,6.70582218e-06
-1.95,7.65563663e-10,1.80029802e-08,8.61455086e-08,1.62371067e-06,4.1731198e-06,6.53735006e-06
-2.0,7.58852184e-10,1.77109055e-08,7.9454132e-08,1.44426355e-06,3.99646751e-06,6.3689706e-06
-2.05,7.52446095e-10,1.74400367e-08,7.44586412e-08,1.26807081e-06,3.81997673e-06,6.20068503e-06
-2.1,7.4632435e-10,1.7187882e-08,7.05893363e-08,1.09664457e-06,3.64366334e-06,6.03249477e-06
-2.15,7.40467876e-10,1.69523628e-08,6.74930282e-08,9.32192783e-07,3.46754761e-06,5.86440146e-06
-2.2,7.34859335e-10,1.67317268e-08,6.49450711e-08,7.7777107e-07,3.29165562e-06,5.69640705e-06
-2.25,7.29482922e-10,1.65244817e-08,6.27985402e-08,6.37210174e-07,3.11602125e-06,5.5285138e-06
-2.3,7.24324195e-10,1.63293457e-08,6.09545828e-08,5.14553079e-07,2.94068902e-06,5.36072437e-06
-2.35,7.19369925e-10,1.61452095e-08,5.93448213e-08,4.12905917e-07,2.76571802e-06,5.19304191e-06
-2.4,7.14607962e-10,1.59711057e-08,5.79206876e-08,3.33178877e-07,2.59118757e-06,5.02547014e-06
-2.45,7.10027132e-10,1.58061857e-08,5.66468117e-08,2.73640023e-07,2.41720541e-06,4.85801351e-06
-2.5,7.05617131e-10,1.56497008e-08,5.54968289e-08,2.30684039e-07,2.24391952e-06,4.69067735e-06
-2.55,7.01368441e-10,1.55009867e-08,5.44506606e-08,2.00171159e-07,2.07153551e-06,4.52346806e-06
-2.6,6.97272257e-10,1.53594516e-08,5.34927115e-08,1.78444117e-07,1.90034196e-06,4.3563934e-06
-2.65,6.93320415e-10,1.52245657e-08,5.26106497e-08,1.62720324e-07,1.73074737e-06,4.18946283e-06
-2.7,6.89505339e-10,1.50958528e-08,5.1794564e-08,1.51055723e-07,1.56333302e-06,4.02268792e-06
-2.75,6.85819983e-10,1.49728835e-08,5.10363709e-08,1.42150572e-07,1.39892593e-06,3.85608297e-06
-2.8,6.82257787e-10,1.48552691e-08,5.03293904e-08,1.3515076e-07,1.23869267e-06,3.68966574e-06
-2.85,6.78812634e-10,1.47426569e-08,4.96680363e-08,1.29495196e-07,1.0842434e-06,3.52345846e-06
-2.9,6.75478815e-10,1.46347255e-08,4.90475867e-08,1.24811544e-07,9.37709772e-07,3.35748918e-06
-2.95,6.72250991e-10,1.45311819e-08,4.84640127e-08,1.20848677e-07,8.01719029e-07,3.19179358e-06
-3.0,6.69124167e-10,1.44317575e-08,4.79138463e-08,1.17433857e-07,6.79151043e-07,3.02641745e-06
-3.05,6.66093661e-10,1.43362062e-08,4.73940798e-08,1.14445708e-07,5.72602504e-07,2.86142007e-06
-3.1,6.63155084e-10,1.42443017e-08,4.6902086e-08,1.11797068e-07,4.83663022e-07,2.69687885e-06
-3.15,6.60304313e-10,1.41558354e-08,4.64355561e-08,1.0942398e-07,4.12353141e-07,2.53289587e-06
-3.2,6.57537474e-10,1.40706148e-08,4.5992449e-08,1.07278528e-07,3.57097486e-07,2.3696069e-06
-3.25,6.54850922e-10,1.39884619e-08,4.55709514e-08,1.05324099e-07,3.15261725e-07,2.20719412e-06
-3.3,6.52241225e-10,1.39092117e-08,4.51694448e-08,1.03532194e-07,2.83899588e-07,2.0459039e-06
-3.35,6.49705149e-10,1.38327113e-08,4.47864778e-08,1.01880247e-07,2.60326849e-07,1.8860714e-06
-3.4,6.47239643e-10,1.37588185e-08,4.44207444e-08,1.00350104e-07,2.42384987e-07,1.72815432e-06
-3.45,6.44841828e-10,1.36874007e-08,4.40710649e-08,9.89269532e-08,2.28466348e-07,1.57277743e-06
-3.5,6.42508983e-10,1.36183348e-08,4.373637e-08,9.75985455e-08,2.17425347e-07,1.4207881e-06
-3.55,6.40238536e-10,1.35515055e-08,4.34156877e-08,9.63546344e-08,2.08463331e-07,1.27331813e-06
-3.6,6.38028056e-10,1.34868052e-08,4.3108132e-08,9.5186555e-08,2.0102723e-07,1.13183668e-06
-3.65,6.35875237e-10,1.34241332e-08,4.28128929e-08,9.40869101e-08,1.94732726e-07,9.9816238e-07
-3.7,6.337779e-10,1.33633953e-08,4.25292279e-08,9.3049329e-08,1.89310079e-07,8.74383372e-07
-3.75,6.31733976e-10,1.33045029e-08,4.22564556e-08,9.20682827e-08,1.84567275e-07,7.6263145e-07
-3.8,6.29741504e-10,1.3247373e-08,4.19939482e-08,9.11389389e-08,1.80365347e-07,6.64700985e-07
-3.85,6.27798623e-10,1.31919277e-08,4.17411271e-08,9.02570471e-08,1.76601919e-07,5.81607119e-07
-3.9,6.25903566e-10,1.31380936e-08,4.14974574e-08,8.9418847e-08,1.73200185e-07,5.13279181e-07
-3.95,6.24054653e-10,1.30858016e-08,4.12624439e-08,8.86209952e-08,1.70101481e-07,4.58565675e-07
-4.0,6.2225029e-10,1.30349865e-08,4.10356275e-08,8.78605041e-08,1.67260211e-07,4.15554831e-07
-4.05,6.20488959e-10,1.2985587e-08,4.08165817e-08,8.71346931e-08,1.64640345e-07,3.82034295e-07
-4.1,6.18769215e-10,1.29375451e-08,4.06049097e-08,8.64411475e-08,1.6221297e-07,3.55883524e-07
-4.15,6.17089685e-10,1.28908062e-08,4.0400242e-08,8.57776838e-08,1.59954547e-07,3.352973e-07
-4.2,6.15449059e-10,1.28453184e-08,4.02022336e-08,8.51423216e-08,1.57845658e-07,3.18852625e-07
-4.25,6.1384609e-10,1.28010329e-08,4.00105626e-08,8.45332588e-08,1.55870091e-07,3.05480617e-07
-4.3,6.12279589e-10,1.27579033e-08,3.98249275e-08,8.3948851e-08,1.54014161e-07,2.94400329e-07
-4.35,6.10748423e-10,1.27158858e-08,3.96450465e-08,8.33875936e-08,1.52266202e-07,2.85048566e-07
-4.4,6.09251511e-10,1.26749388e-08,3.9470655e-08,8.28481068e-08,1.50616178e-07,2.77020231e-07
-4.45,6.07787818e-10,1.26350228e-08,3.93015048e-08,8.23291221e-08,1.49055388e-07,2.70022605e-07
-4.5,6.0635636e-10,1.25961004e-08,3.91373628e-08,8.1829471e-08,1.47576232e-07,2.63842164e-07
-4.55,6.04956196e-10,1.25581361e-08,3.89780099e-08,8.13480747e-08,1.46172027e-07,2.58321168e-07
-4.6,6.03586424e-10,1.25210962e-08,3.88232396e-08,8.08839358e-08,1.44836864e-07,2.53341377e-07
-4.65,6.02246185e-10,1.24849485e-08,3.86728576e-08,8.04361297e-08,1.43565489e-07,2.48812769e-07
-4.7,6.00934656e-10,1.24496627e-08,3.85266805e-08,8.00037989e-08,1.42353207e-07,2.44665708e-07
-4.75,5.99651049e-10,1.24152096e-08,3.83845355e-08,7.9586146e-08,1.41195804e-07,2.40845468e-07
-4.8,5.9839461e-10,1.23815616e-08,3.82462593e-08,7.91824286e-08,1.40089483e-07,2.3730839e-07
-4.85,5.97164618e-10,1.23486925e-08,3.81116974e-08,7.87919549e-08,1.39030811e-07,2.34019128e-07
-4.9,5.95960381e-10,1.23165773e-08,3.79807038e-08,7.84140787e-08,1.38016673e-07,2.30948686e-07
-4.95,5.94781237e-10,1.22851919e-08,3.78531405e-08,7.80481964e-08,1.37044232e-07,2.28072971e-07
-5.0,5.93626549e-10,1.22545137e-08,3.77288765e-08,7.76937429e-08,1.36110898e-07,2.25371736e-07
-5.05,5.92495709e-10,1.22245209e-08,3.76077878e-08,7.73501886e-08,1.35214302e-07,2.22827787e-07
-5.1,5.91388131e-10,1.21951929e-08,3.7489757e-08,7.70170369e-08,1.34352269e-07,2.20426382e-07
-5.15,5.90303254e-10,1.21665097e-08,3.73746724e-08,7.66938214e-08,1.33522799e-07,2.18154774e-07
-5.2,5.89240538e-10,1.21384526e-08,3.72624281e-08,7.63801039e-08,1.32724048e-07,2.16001857e-07
-5.25,5.88199465e-10,1.21110034e-08,3.71529236e-08,7.6075472e-08,1.31954313e-07,2.13957881e-07
-5.3,5.87179538e-10,1.20841449e-08,3.70460634e-08,7.57795371e-08,1.3121202e-07,2.12014241e-07
-5.35,5.86180276e-10,1.20578606e-08,3.69417565e-08,7.54919334e-08,1.30495707e-07,2.1016329e-07
-5.4,5.85201219e-10,1.20321347e-08,3.68399164e-08,7.52123155e-08,1.29804019e-07,2.08398207e-07
-5.45,5.84241924e-10,1.20069521e-08,3.67404611e-08,7.49403573e-08,1.29135695e-07,2.0671287e-07
-5.5,5.83301962e-10,1.19822982e-08,3.6643312e-08,7.46757509e-08,1.2848956e-07,2.05101771e-07
-5.55,5.82380922e-10,1.19581593e-08,3.65483946e-08,7.44182051e-08,1.2786452e-07,2.03559925e-07
-5.6,5.81478408e-10,1.19345221e-08,3.64556379e-08,7.41674443e-08,1.2725955e-07,2.02082813e-07
-5.65,5.80594036e-10,1.19113738e-08,3.6364974e-08,7.39232076e-08,1.26673694e-07,2.00666321e-07
-5.7,5.79727438e-10,1.18887022e-08,3.62763382e-08,7.36852479e-08,1.26106058e-07,1.99306693e-07
-5.75,5.78878256e-10,1.18664956e-08,3.6189669e-08,7.34533309e-08,1.255558e-07,1.98000492e-07
-5.8,5.78046148e-10,1.18447428e-08,3.61049074e-08,7.32272343e-08,1.25022134e-07,1.96744563e-07
-5.85,5.77230779e-10,1.1823433e-08,3.60219971e-08,7.30067473e-08,1.24504319e-07,1.95536004e-07
-5.9,5.76431829e-10,1.18025557e-08,3.59408846e-08,7.27916694e-08,1.24001659e-07,1.94372141e-07
-5.95,5.75648987e-10,1.17821011e-08,3.58615184e-08,7.25818105e-08,1.23513499e-07,1.93250502e-07
-6.0,5.74881951e-10,1.17620596e-08,3.57838494e-08,7.23769896e-08,1.23039223e-07,1.92168802e-07
-6.05,5.74130431e-10,1.17424219e-08,3.57078308e-08,7.21770347e-08,1.22578248e-07,1.91124919e-07
-6.1,5.73394145e-10,1.17231791e-08,3.56334175e-08,7.19817821e-08,1.22130026e-07,1.90116886e-07
-6.15,5.72672818e-10,1.17043228e-08,3.55605667e-08,7.1791076e-08,1.21694038e-07,1.89142871e-07
-6.2,5.71966187e-10,1.16858447e-08,3.54892371e-08,7.16047679e-08,1.21269794e-07,1.88201167e-07
-6.25,5.71273993e-10,1.16677369e-08,3.54193893e-08,7.14227166e-08,1.20856831e-07,1.87290184e-07
-6.3,5.70595987e-10,1.16499918e-08,3.53509856e-08,7.12447872e-08,1.2045471e-07,1.86408435e-07
-6.35,5.69931927e-10,1.16326019e-08,3.52839896e-08,7.10708512e-08,1.20063016e-07,1.85554528e-07
-6.4,5.69281577e-10,1.16155601e-08,3.52183666e-08,7.09007861e-08,1.19681355e-07,1.84727161e-07
-6.45,5.68644709e-10,1.15988597e-08,3.51540834e-08,7.07344748e-08,1.19309354e-07,1.83925115e-07
-6.5,5.68021099e-10,1.15824939e-08,3.50911078e-08,7.05718057e-08,1.18946659e-07,1.83147242e-07
-6.55,5.67410532e-10,1.15664564e-08,3.50294091e-08,7.04126721e-08,1.18592933e-07,1.82392466e-07
-6.6,5.66812797e-10,1.1550741e-08,3.49689579e-08,7.02569721e-08,1.18247858e-07,1.81659775e-07
