vds,vb1,vb2,vb3,vb4,vb5,vb6
0.0,0.000111631233,0.000441705786,0.000697770499,0.000909767391,0.00109216481,0.0012539426
-0.05,9.16684682e-05,0.000419741303,0.000676607191,0.000889467472,0.00107261962,0.00123502832
-0.1,7.19933409e-05,0.000397942386,0.000655586918,0.000869294394,0.00105318912,0.0012162194
-0.15,5.27834869e-05,0.000376307861,0.000634708458,0.000849247124,0.00103387243,0.00119751508
-0.2,3.46120772e-05,0.000354836732,0.000613970615,0.00082932464,0.00101466866,0.00117891457
-0.25,1.91942142e-05,0.000333528252,0.000593372217,0.000809525935,0.000995576949,0.00116041712
-0.3,9.3718258e-06,0.000312382027,0.000572912125,0.000789850014,0.000976596445,0.00114202198
-0.35,5.16514642e-06,0.000291398178,0.000552589232,0.000770295897,0.000957726294,0.0011237284
-0.4,3.65719459e-06,0.000270577607,0.000532402469,0.000750862616,0.000938965659,0.00110553565
-0.45,3.05002361e-06,0.00024992242,0.000512350813,0.000731549219,0.000920313709,0.00108744298
-0.5,2.74536809e-06,0.000229436658,0.000492433292,0.000712354768,0.000901769623,0.00106944969
-0.55,2.55893961e-06,0.000209127554,0.000472649,0.000693278342,0.00088333259,0.00105155504
-0.6,2.42744547e-06,0.000189007793,0.000452997111,0.000674319036,0.000865001806,0.00103375833
-0.65,2.32579902e-06,0.000169099711,0.000433476898,0.000655475965,0.000846776481,0.00101605885
-0.7,2.24260035e-06,0.000149443289,0.000414087764,0.000636748261,0.00082865583,0.000998455918
-0.75,2.17199814e-06,0.000130111729,0.000394829281,0.000618135082,0.000810639082,0.00098094883
-0.8,2.11065464e-06,0.000111241695,0.000375701242,0.000599635607,0.000792725475,0.000963536908
-0.85,2.05648834e-06,9.30889053e-05,0.000356703749,0.000581249046,0.000774914258,0.000946219478
-0.9,2.00810243e-06,7.61125377e-05,0.000337837323,0.000562974638,0.000757204692,0.000928995871
-0.95,1.96450277e-06,6.10359993e-05,0.000319103078,0.00054481166,0.000739596048,0.000911865426
-1.0,1.92494826e-06,4.87010608e-05,0.000300502982,0.000526759433,0.000722087613,0.000894827492
-1.05,1.88886609e-06,3.95752034e-05,0.000282040256,0.000508817328,0.000704678686,0.000877881423
-1.1,1.85580078e-06,3.33498227e-05,0.000263719996,0.00049098478,0.000687368579,0.000861026583
-1.15,1.82538207e-06,2.92079009e-05,0.000245550163,0.000473261299,0.000670156623,0.000844262342
-1.2,1.79730359e-06,2.63643663e-05,0.000227543203,0.000455646493,0.000653042164,0.00082758808
-1.25,1.77130819e-06,2.42937985e-05,0.000209718704,0.000438140087,0.000636024568,0.000811003186
-1.3,1.74717753e-06,2.26939982e-05,0.000192107853,0.000420741962,0.00061910322,0.000794507058
-1.35,1.7247244e-06,2.13975675e-05,0.000174760874,0.000403452199,0.000602277533,0.000778099103
-1.4,1.70378696e-06,2.03096618e-05,0.000157759277,0.000386271143,0.000585546943,0.000761778738
-1.45,1.68422433e-06,1.93737682e-05,0.000141234837,0.000369199488,0.00056891092,0.000745545391
-1.5,1.66591308e-06,1.85541538e-05,0.000125395049,0.00035223841,0.000552368967,0.000729398502
-1.55,1.6487445e-06,1.78268744e-05,0.000110545421,0.000335389738,0.000535920632,0.000713337521
-1.6,1.63262241e-06,1.71750351e-05,9.70785111e-05,0.000318656224,0.000519565513,0.000697361912
-1.65,1.61746128e-06,1.65861848e-05,8.53848891e-05,0.000302041921,0.000503303269,0.000681471154
-1.7,1.60318482e-06,1.6050816e-05,7.5689445e-05,0.000285552765,0.00048713363,0.000665664739
-1.75,1.58972469e-06,1.5561459e-05,6.79314563e-05,0.000269197447,0.000471056421,0.000649942177
-1.8,1.57701946e-06,1.51121092e-05,6.18110247e-05,0.000252988747,0.000455071577,0.000634302997
-1.85,1.56501378e-06,1.46978501e-05,5.69472408e-05,0.000236945596,0.000439179178,0.000618746748
-1.9,1.5536576e-06,1.43145958e-05,5.30036445e-05,0.000221096242,0.000423379482,0.000603273001
-1.95,1.54290558e-06,1.39589079e-05,4.97298266e-05,0.000205483058,0.000407672984,0.000587881357
-2.0,1.53271648e-06,1.36278635e-05,4.69525856e-05,0.000190169566,0.000392060479,0.000572571445
-2.05,1.52305276e-06,1.33189556e-05,4.45540623e-05,0.000175249845,0.000376543166,0.00055734293
-2.1,1.51388014e-06,1.30300176e-05,4.24528902e-05,0.000160858901,0.000361122775,0.000542195521
-2.15,1.50516728e-06,1.27591652e-05,4.05912891e-05,0.00014717864,0.000345801761,0.000527128972
-2.2,1.49688542e-06,1.25047493e-05,3.89268997e-05,0.000134428353,0.000330583561,0.000512143101
-2.25,1.48900816e-06,1.22653195e-05,3.74277119e-05,0.000122827336,0.000315472977,0.000497237792
-2.3,1.48151122e-06,1.20395943e-05,3.60688841e-05,0.000112532847,0.000300476714,0.000482413018
-2.35,1.4743722e-06,1.18264362e-05,3.48306985e-05,0.000103586328,0.000285604171,0.000467668857
-2.4,1.46757044e-06,1.16248319e-05,3.36972091e-05,9.59075623e-05,0.000270868584,0.000453005516
-2.45,1.46108683e-06,1.14338751e-05,3.26553174e-05,8.9337812e-05,0.000256288674,0.000438423365
-2.5,1.45490366e-06,1.12527528e-05,3.16941238e-05,8.36952456e-05,0.000241891011,0.000423922977
-2.55,1.44900451e-06,1.10807336e-05,3.08044585e-05,7.88120056e-05,0.000227713248,0.000409505184
-2.6,1.44337415e-06,1.09171569e-05,2.99785341e-05,7.45484471e-05,0.00021380828,0.000395171149
-2.65,1.4379984e-06,1.07614251e-05,2.92096839e-05,7.07936166e-05,0.000200248847,0.000380922462
-2.7,1.43286404e-06,1.0612996e-05,2.84921593e-05,6.74605922e-05,0.000187131056,0.000366761268
-2.75,1.42795879e-06,1.04713763e-05,2.78209726e-05,6.44811242e-05,0.000174573636,0.000352690443
-2.8,1.42327115e-06,1.03361163e-05,2.71917717e-05,6.18011083e-05,0.000162708693,0.00033871383
-2.85,1.41879038e-06,1.02068053e-05,2.66007394e-05,5.93771336e-05,0.000151661826,0.000324836561
-2.9,1.41450644e-06,1.00830669e-05,2.60445126e-05,5.71739398e-05,0.000141526391,0.000311065503
-2.95,1.41040994e-06,9.9645564e-06,2.55201151e-05,5.51625584e-05,0.000132343787,0.000297409862
-3.0,1.40649206e-06,9.85095652e-06,2.50249034e-05,5.33189423e-05,0.000124099946,0.000283882016
-3.05,1.40274453e-06,9.7419754e-06,2.45565201e-05,5.16229445e-05,0.000116737466,0.000270498629
-3.1,1.39915958e-06,9.6373438e-06,2.41128565e-05,5.00575454e-05,0.000110174205,0.000257282137
-3.15,1.39572993e-06,9.53681305e-06,2.36920202e-05,4.86082605e-05,0.000104319626,0.000244262624
-3.2,1.39244869e-06,9.44015305e-06,2.32923076e-05,4.72626799e-05,9.90854316e-05,0.000231480043
-3.25,1.38930941e-06,9.34715061e-06,2.29121811e-05,4.60101067e-05,9.43909576e-05,0.000218986491
-3.3,1.38630601e-06,9.25760792e-06,2.25502489e-05,4.4841269e-05,9.01651327e-05,0.000206847782
-3.35,1.38343273e-06,9.17134118e-06,2.22052485e-05,4.37480888e-05,8.63465504e-05,0.000195142964
-3.4,1.38068417e-06,9.08817938e-06,2.18760315e-05,4.27234955e-05,8.28826811e-05,0.000183959949
-3.45,1.3780552e-06,9.00796321e-06,2.15615513e-05,4.17612725e-05,7.97287776e-05,0.000173386162
-3.5,1.375541e-06,8.93054408e-06,2.12608517e-05,4.08559324e-05,7.68467518e-05,0.0001634956
-3.55,1.37313701e-06,8.85578324e-06,2.09730578e-05,4.00026124e-05,7.42041403e-05,0.000154336735
-3.6,1.37083889e-06,8.78355098e-06,2.06973668e-05,3.9196988e-05,7.17732028e-05,0.000145926224
-3.65,1.36864258e-06,8.71372592e-06,2.04330416e-05,3.84352007e-05,6.95301561e-05,0.000138250286
-3.7,1.36654419e-06,8.64619433e-06,2.01794034e-05,3.77137965e-05,6.7454534e-05,0.00013127168
-3.75,1.36454007e-06,8.58084959e-06,1.99358266e-05,3.70296744e-05,6.55286556e-05,0.000124938587
-3.8,1.36262675e-06,8.5175916e-06,1.97017333e-05,3.63800426e-05,6.37371852e-05,0.000119192526
-3.85,1.36080092e-06,8.45632632e-06,1.9476589e-05,3.57623806e-05,6.2066769e-05,0.000113974105
-3.9,1.35905947e-06,8.39696535e-06,1.92598988e-05,3.51744073e-05,6.05057331e-05,0.000109226588
-3.95,1.35739944e-06,8.33942546e-06,1.90512035e-05,3.4614053e-05,5.90438341e-05,0.000104897754
-4.0,1.35581802e-06,8.28362829e-06,1.88500765e-05,3.4079436e-05,5.76720508e-05,0.000100940639
-4.05,1.35431254e-06,8.22949998e-06,1.86561211e-05,3.3568841e-05,5.63824104e-05,9.73136041e-05
-4.1,1.35288047e-06,8.17697085e-06,1.84689677e-05,3.30807018e-05,5.5167843e-05,9.39800378e-05
-4.15,1.35151939e-06,8.12597514e-06,1.8288272e-05,3.2613585e-05,5.40220589e-05,9.09078954e-05
-4.2,1.35022702e-06,8.07645074e-06,1.81137122e-05,3.21661766e-05,5.29394453e-05,8.80691851e-05
-4.25,1.34900119e-06,8.02833895e-06,1.79449878e-05,3.17372694e-05,5.19149788e-05,8.54394625e-05
-4.3,1.34783983e-06,7.98158424e-06,1.77818177e-05,3.13257528e-05,5.09441505e-05,8.29973616e-05
-4.35,1.34674098e-06,7.93613411e-06,1.76239384e-05,3.09306033e-05,5.00229025e-05,8.07241765e-05
-4.4,1.34570276e-06,7.8919388e-06,1.74711031e-05,3.05508757e-05,4.91475733e-05,7.86034952e-05
-4.45,1.3447234e-06,7.84895123e-06,1.73230801e-05,3.01856962e-05,4.83148512e-05,7.66208825e-05
-4.5,1.3438012e-06,7.80712674e-06,1.71796519e-05,2.98342559e-05,4.75217333e-05,7.4763608e-05
-4.55,1.34293456e-06,7.76642302e-06,1.70406138e-05,2.94958043e-05,4.6765491e-05,7.30204143e-05
-4.6,1.34212194e-06,7.7267999e-06,1.69057735e-05,2.91696448e-05,4.60436394e-05,7.13813182e-05
-4.65,1.34136188e-06,7.6882193e-06,1.67749498e-05,2.88551297e-05,4.53539107e-05,6.9837442e-05
-4.7,1.340653e-06,7.65064503e-06,1.66479721e-05,2.85516557e-05,4.46942313e-05,6.83808691e-05
-4.75,1.33999396e-06,7.61404273e-06,1.65246792e-05,2.82586608e-05,4.40627016e-05,6.70045213e-05
-4.8,1.33938352e-06,7.57837977e-06,1.64049194e-05,2.79756203e-05,4.3457578e-05,6.57020525e-05
-4.85,1.33882046e-06,7.54362512e-06,1.62885492e-05,2.77020441e-05,4.28772575e-05,6.44677594e-05
-4.9,1.33830364e-06,7.50974929e-06,1.61754332e-05,2.74374739e-05,4.23202637e-05,6.32965028e-05
-4.95,1.33783197e-06,7.4767242e-06,1.60654431e-05,2.71814804e-05,4.17852345e-05,6.21836411e-05
-5.0,1.33740442e-06,7.44452317e-06,1.5958458e-05,2.69336615e-05,4.12709118e-05,6.11249724e-05
-5.05,1.33701999e-06,7.41312078e-06,1.5854363e-05,2.66936399e-05,4.07761312e-05,6.01166844e-05
-5.1,1.33667773e-06,7.38249286e-06,1.57530496e-05,2.64610613e-05,4.02998138e-05,5.91553106e-05
-5.15,1.33637675e-06,7.35261635e-06,1.5654415e-05,2.62355929e-05,3.98409586e-05,5.82376926e-05
-5.2,1.33611617e-06,7.32346931e-06,1.55583616e-05,2.60169217e-05,3.93986353e-05,5.73609469e-05
-5.25,1.3358952e-06,7.29503084e-06,1.5464797e-05,2.58047529e-05,3.89719786e-05,5.65224361e-05
-5.3,1.33571303e-06,7.26728099e-06,1.53736336e-05,2.55988091e-05,3.85601823e-05,5.57197431e-05
-5.35,1.33556892e-06,7.24020076e-06,1.5284788e-05,2.53988285e-05,3.81624946e-05,5.49506489e-05
-5.4,1.33546216e-06,7.21377201e-06,1.51981814e-05,2.52045644e-05,3.77782138e-05,5.42131131e-05
-5.45,1.33539206e-06,7.18797745e-06,1.51137385e-05,2.50157839e-05,3.74066837e-05,5.35052561e-05
-5.5,1.33535798e-06,7.16280057e-06,1.50313883e-05,2.48322669e-05,3.70472905e-05,5.28253437e-05
-5.55,1.33535929e-06,7.13822561e-06,1.49510628e-05,2.46538055e-05,3.66994594e-05,5.21717738e-05
-5.6,1.33539539e-06,7.11423751e-06,1.48726978e-05,2.44802032e-05,3.63626513e-05,5.15430637e-05
-5.65,1.33546573e-06,7.09082191e-06,1.47962319e-05,2.4311274e-05,3.60363606e-05,5.09378393e-05
-5.7,1.33556975e-06,7.06796507e-06,1.47216069e-05,2.41468419e-05,3.57201122e-05,5.03548257e-05
-5.75,1.33570693e-06,7.04565384e-06,1.46487673e-05,2.39867401e-05,3.54134598e-05,4.97928383e-05
-5.8,1.33587678e-06,7.02387567e-06,1.45776604e-05,2.38308107e-05,3.51159833e-05,4.92507749e-05
-5.85,1.33607881e-06,7.00261856e-06,1.45082358e-05,2.36789041e-05,3.48272873e-05,4.87276089e-05
-5.9,1.33631258e-06,6.98187099e-06,1.44404458e-05,2.35308783e-05,3.45469993e-05,4.8222383e-05
-5.95,1.33657764e-06,6.96162198e-06,1.43742447e-05,2.33865987e-05,3.42747681e-05,4.77342033e-05
-6.0,1.33687358e-06,6.94186097e-06,1.4309589e-05,2.32459375e-05,3.40102625e-05,4.72622344e-05
-6.05,1.33719998e-06,6.92257788e-06,1.42464374e-05,2.31087735e-05,3.37531697e-05,4.68056948e-05
-6.1,1.33755647e-06,6.90376302e-06,1.41847502e-05,2.29749914e-05,3.35031943e-05,4.63638524e-05
-6.15,1.33794268e-06,6.88540712e-06,1.41244899e-05,2.2844482e-05,3.32600572e-05,4.59360212e-05
-6.2,1.33835824e-06,6.86750127e-06,1.40656204e-05,2.27171413e-05,3.30234944e-05,4.55215574e-05
-6.25,1.33880282e-06,6.85003693e-06,1.40081074e-05,2.25928704e-05,3.27932561e-05,4.51198563e-05
-6.3,1.33927609e-06,6.8330059e-06,1.39519182e-05,2.24715755e-05,3.25691061e-05,4.47303497e-05
-6.35,1.33977773e-06,6.8164003e-06,1.38970214e-05,2.23531672e-05,3.23508205e-05,4.43525032e-05
-6.4,1.34030743e-06,6.80021254e-06,1.38433871e-05,2.22375606e-05,3.21381873e-05,4.39858138e-05
-6.45,1.3408649e-06,6.78443536e-06,1.37909868e-05,2.21246747e-05,3.19310057e-05,4.36298074e-05
-6.5,1.34144986e-06,6.76906173e-06,1.37397931e-05,2.20144326e-05,3.17290851e-05,4.32840374e-05
-6.55,1.34206204e-06,6.75408492e-06,1.36897798e-05,2.1906761e-05,3.15322449e-05,4.29480824e-05
-6.6,1.34270117e-06,6.73949841e-06,1.3640922e-05,2.18015901e-05,3.13403137e-05,4.26215448e-05
