vds,vb1,vb2,vb3,vb4,vb5,vb6
0.0,9.46754838e-08,8.28219008e-07,1.49326341e-06,2.09370883e-06,2.64047436e-06,3.14203771e-06
-0.05,5.45279881e-08,7.76018711e-07,1.44324152e-06,2.04625763e-06,2.59549272e-06,3.09935117e-06
-0.1,2.06954381e-08,7.23849138e-07,1.39324016e-06,1.99882371e-06,2.55052617e-06,3.056678e-06
-0.15,4.73987433e-09,6.71713482e-07,1.34325955e-06,1.95140712e-06,2.50557473e-06,3.01401821e-06
-0.2,1.21860907e-09,6.19616519e-07,1.29329995e-06,1.9040079e-06,2.46063841e-06,2.97137181e-06
-0.25,4.67197403e-10,5.67565577e-07,1.24336169e-06,1.85662612e-06,2.41571723e-06,2.92873879e-06
-0.3,2.46517283e-10,5.15572239e-07,1.1934452e-06,1.80926185e-06,2.3708112e-06,2.88611916e-06
-0.35,1.61474331e-10,4.63655431e-07,1.14355098e-06,1.76191515e-06,2.32592035e-06,2.84351293e-06
-0.4,1.21621257e-10,4.11847262e-07,1.09367971e-06,1.71458613e-06,2.28104469e-06,2.8009201e-06
-0.45,1.00069598e-10,3.60204487e-07,1.04383223e-06,1.66727489e-06,2.23618426e-06,2.7583407e-06
-0.5,8.70814252e-11,3.08832006e-07,9.94009631e-07,1.61998156e-06,2.19133908e-06,2.71577471e-06
-0.55,7.85683605e-11,2.57932664e-07,9.44213343e-07,1.57270629e-06,2.14650919e-06,2.67322216e-06
-0.6,7.26071755e-11,2.07914514e-07,8.94445254e-07,1.52544926e-06,2.10169464e-06,2.63068305e-06
-0.65,6.8207779e-11,1.5961348e-07,8.44707886e-07,1.47821069e-06,2.05689546e-06,2.58815741e-06
-0.7,6.4821655e-11,1.14680649e-07,7.95004661e-07,1.43099083e-06,2.01211172e-06,2.54564524e-06
-0.75,6.21258102e-11,7.59053265e-08,7.45340289e-07,1.38378999e-06,1.96734346e-06,2.50314657e-06
-0.8,5.99199865e-11,4.64546115e-08,6.95721359e-07,1.33660852e-06,1.92259075e-06,2.46066141e-06
-0.85,5.80744154e-11,2.74309599e-08,6.46157257e-07,1.28944689e-06,1.87785368e-06,2.41818979e-06
-0.9,5.65017303e-11,1.67058183e-08,5.96661613e-07,1.24230562e-06,1.83313233e-06,2.37573173e-06
-0.95,5.51411178e-11,1.10210264e-08,5.47254641e-07,1.1951854e-06,1.78842681e-06,2.33328726e-06
-1.0,5.3948991e-11,7.98103443e-09,4.97967001e-07,1.14808703e-06,1.74373723e-06,2.29085641e-06
-1.05,5.28932945e-11,6.27392771e-09,4.4884631e-07,1.10101154e-06,1.69906374e-06,2.24843921e-06
-1.1,5.19499095e-11,5.25253925e-09,3.9996835e-07,1.05396021e-06,1.65440648e-06,2.20603571e-06
-1.15,5.11003177e-11,4.60090752e-09,3.51456609e-07,1.00693466e-06,1.60976564e-06,2.16364594e-06
-1.2,5.03300427e-11,4.15990509e-09,3.03516463e-07,9.59936944e-07,1.56514143e-06,2.12126996e-06
-1.25,4.96275845e-11,3.84559473e-09,2.56493748e-07,9.12969718e-07,1.52053411e-06,2.07890783e-06
-1.3,4.89836754e-11,3.61144582e-09,2.10968464e-07,8.66036431e-07,1.47594396e-06,2.0365596e-06
-1.35,4.83907499e-11,3.43039226e-09,1.67879515e-07,8.19141619e-07,1.43137132e-06,1.99422535e-06
-1.4,4.78425601e-11,3.28597001e-09,1.28614261e-07,7.72291319e-07,1.38681662e-06,1.95190515e-06
-1.45,4.73338925e-11,3.16774724e-09,9.48715583e-08,7.25493674e-07,1.34228031e-06,1.90959909e-06
-1.5,4.68603551e-11,3.06886584e-09,6.80818159e-08,6.78759812e-07,1.29776299e-06,1.86730728e-06
-1.55,4.64182169e-11,2.98466476e-09,4.8602277e-08,6.32105168e-07,1.25326534e-06,1.82502983e-06
-1.6,4.60042833e-11,2.91188012e-09,3.54706514e-08,5.85551487e-07,1.2087882e-06,1.78276687e-06
-1.65,4.56158001e-11,2.84816417e-09,2.70167269e-08,5.39129896e-07,1.16433256e-06,1.74051855e-06
-1.7,4.52503768e-11,2.79178692e-09,2.16413958e-08,4.92885691e-07,1.11989967e-06,1.69828504e-06
-1.75,4.49059272e-11,2.74144565e-09,1.81750881e-08,4.46885869e-07,1.07549104e-06,1.65606653e-06
-1.8,4.458062e-11,2.69614007e-09,1.58715064e-08,4.01231023e-07,1.03110853e-06,1.61386324e-06
-1.85,4.42728402e-11,2.65508859e-09,1.42823395e-08,3.56074055e-07,9.86754489e-07,1.57167543e-06
-1.9,4.39811565e-11,2.61767077e-09,1.31426045e-08,3.11648943e-07,9.4243184e-07,1.5295034e-06
-1.95,4.37042956e-11,2.58338706e-09,1.22943817e-08,2.68312613e-07,8.98144304e-07,1.48734749e-06
-2.0,4.34411196e-11,2.55183011e-09,1.16415717e-08,2.26598748e-07,8.53896636e-07,1.44520809e-06
-2.05,4.31906085e-11,2.52266384e-09,1.11241081e-08,1.87268196e-07,8.09694977e-07,1.40308567e-06
-2.1,4.29518444e-11,2.49560811e-09,1.07033462e-08,1.51310475e-07,7.65547342e-07,1.36098078e-06
-2.15,4.27239989e-11,2.47042717e-09,1.03536914e-08,1.19818596e-07,7.21464301e-07,1.31889405e-06
-2.2,4.25063221e-11,2.44692092e-09,1.0057711e-08,9.36885573e-08,6.77459953e-07,1.27682623e-06
-2.25,4.2298133e-11,2.4249182e-09,9.80321279e-09,7.32518962e-08,6.33553334e-07,1.23477824e-06
-2.3,4.2098812e-11,2.40427156e-09,9.58145679e-09,5.81105614e-08,5.89770452e-07,1.19275112e-06
-2.35,4.19077936e-11,2.38485311e-09,9.386033e-09,4.73260947e-08,5.46147284e-07,1.15074618e-06
-2.4,4.17245604e-11,2.36655131e-09,9.21214085e-09,3.97947816e-08,5.027342e-07,1.10876496e-06
-2.45,4.15486385e-11,2.34926834e-09,9.0561155e-09,3.45398238e-08,4.59602513e-07,1.06680934e-06
-2.5,4.13795924e-11,2.33291795e-09,8.9151099e-09,3.08233423e-08,4.16854141e-07,1.02488162e-06
-2.55,4.12170211e-11,2.31742377e-09,8.78687683e-09,2.81351764e-08,3.74635658e-07,9.82984611e-07
-2.6,4.1060555e-11,2.30271785e-09,8.66961677e-09,2.61379266e-08,3.33158022e-07,9.41121815e-07
-2.65,4.09098528e-11,2.28873955e-09,8.5618697e-09,2.46120716e-08,2.92722466e-07,8.99297589e-07
-2.7,4.07645985e-11,2.27543447e-09,8.46243687e-09,2.34146497e-08,2.53749909e-07,8.57517409e-07
-2.75,4.06244993e-11,2.26275373e-09,8.37032336e-09,2.24515079e-08,2.16803962e-07,8.15788217e-07
-2.8,4.04892833e-11,2.25065319e-09,8.28469531e-09,2.16595756e-08,1.82585225e-07,7.74118887e-07
-2.85,4.03586979e-11,2.23909292e-09,8.20484754e-09,2.0995753e-08,1.51863666e-07,7.32520866e-07
-2.9,4.02325079e-11,2.22803667e-09,8.13017888e-09,2.04299582e-08,1.25327009e-07,6.91009058e-07
-2.95,4.01104939e-11,2.21745146e-09,8.06017297e-09,1.99407449e-08,1.03377943e-07,6.49603052e-07
-3.0,3.99924513e-11,2.20730721e-09,7.9943833e-09,1.95125031e-08,8.59849777e-08,6.08328854e-07
-3.05,3.9878189e-11,2.19757638e-09,7.93242137e-09,1.91336445e-08,7.26911338e-08,5.67221307e-07
-3.1,3.97675278e-11,2.18823377e-09,7.87394721e-09,1.87954039e-08,6.27759202e-08,5.26327537e-07
-3.15,3.96603004e-11,2.17925621e-09,7.81866175e-09,1.8491036e-08,5.5460921e-08,4.85711797e-07
-3.2,3.95563495e-11,2.17062239e-09,7.76630062e-09,1.82152651e-08,5.00556802e-08,4.45462276e-07
-3.25,3.94555277e-11,2.16231266e-09,7.71662912e-09,1.79639035e-08,4.6016549e-08,4.05700476e-07
-3.3,3.93576964e-11,2.15430887e-09,7.66943797e-09,1.77335815e-08,4.29450325e-08,3.66593712e-07
-3.35,3.92627253e-11,2.14659422e-09,7.62453987e-09,1.75215537e-08,4.0560401e-08,3.28370758e-07
-3.4,3.91704918e-11,2.13915316e-09,7.5817666e-09,1.73255576e-08,3.86684505e-08,2.91339162e-07
-3.45,3.90808804e-11,2.13197124e-09,7.54096655e-09,1.71437091e-08,3.71353581e-08,2.5589955e-07
-3.5,3.89937821e-11,2.12503503e-09,7.50200267e-09,1.69744246e-08,3.58684179e-08,2.22547056e-07
-3.55,3.89090942e-11,2.11833203e-09,7.46475069e-09,1.68163611e-08,3.48026949e-08,1.91844529e-07
-3.6,3.88267196e-11,2.1118506e-09,7.42909765e-09,1.6668371e-08,3.38920446e-08,1.64352767e-07
-3.65,3.87465666e-11,2.10557987e-09,7.39494057e-09,1.6529466e-08,3.31031385e-08,1.40519071e-07
-3.7,3.86685485e-11,2.09950967e-09,7.36218539e-09,1.639879e-08,3.24114924e-08,1.20557812e-07
-3.75,3.85925832e-11,2.0936305e-09,7.33074595e-09,1.62755963e-08,3.17988097e-08,1.0438183e-07
-3.8,3.85185929e-11,2.08793346e-09,7.30054318e-09,1.61592305e-08,3.1251188e-08,9.16267961e-08
-3.85,3.84465041e-11,2.08241021e-09,7.27150437e-09,1.60491157e-08,3.07578943e-08,8.17548555e-08
-3.9,3.83762469e-11,2.07705291e-09,7.24356252e-09,1.59447412e-08,3.03105154e-08,7.41801839e-08
-3.95,3.83077551e-11,2.07185421e-09,7.21665578e-09,1.58456527e-08,2.99023635e-08,6.83639374e-08
-4.0,3.82409658e-11,2.06680718e-09,7.19072698e-09,1.57514447e-08,2.95280513e-08,6.38607436e-08
-4.05,3.81758193e-11,2.06190533e-09,7.16572314e-09,1.56617535e-08,2.91831859e-08,6.03267333e-08
-4.1,3.81122588e-11,2.0571425e-09,7.14159513e-09,1.55762523e-08,2.88641454e-08,5.75071492e-08
-4.15,3.80502303e-11,2.05251292e-09,7.11829728e-09,1.54946459e-08,2.85679122e-08,5.52174242e-08
-4.2,3.79896826e-11,2.04801114e-09,7.09578713e-09,1.54166673e-08,2.82919484e-08,5.33250518e-08
-4.25,3.79305667e-11,2.04363199e-09,7.07402509e-09,1.53420739e-08,2.80341011e-08,5.17348975e-08
-4.3,3.78728361e-11,2.03937062e-09,7.05297425e-09,1.52706452e-08,2.77925294e-08,5.0378238e-08
-4.35,3.78164465e-11,2.03522241e-09,7.03260012e-09,1.52021797e-08,2.75656479e-08,4.92049251e-08
-4.4,3.77613557e-11,2.03118301e-09,7.01287045e-09,1.51364932e-08,2.73520817e-08,4.81779045e-08
-4.45,3.77075232e-11,2.0272483e-09,6.99375504e-09,1.50734169e-08,2.71506317e-08,4.72694148e-08
-4.5,3.76549108e-11,2.02341437e-09,6.9752256e-09,1.50127957e-08,2.69602458e-08,4.64583548e-08
-4.55,3.76034816e-11,2.0196775e-09,6.95725556e-09,1.49544868e-08,2.67799964e-08,4.57284517e-08
-4.6,3.75532007e-11,2.01603419e-09,6.93982e-09,1.48983586e-08,2.66090616e-08,4.50669768e-08
-4.65,3.75040345e-11,2.0124811e-09,6.92289547e-09,1.48442893e-08,2.644671e-08,4.44638376e-08
-4.7,3.7455951e-11,2.00901505e-09,6.90645992e-09,1.47921665e-08,2.62922881e-08,4.39109276e-08
-4.75,3.74089196e-11,2.00563305e-09,6.89049256e-09,1.47418856e-08,2.61452098e-08,4.34016555e-08
-4.8,3.73629111e-11,2.00233221e-09,6.87497382e-09,1.46933499e-08,2.60049475e-08,4.29306019e-08
-4.85,3.73178974e-11,1.99910982e-09,6.85988522e-09,1.46464692e-08,2.5871025e-08,4.24932633e-08
-4.9,3.72738517e-11,1.99596329e-09,6.84520934e-09,1.46011597e-08,2.57430107e-08,4.20858612e-08
-4.95,3.72307482e-11,1.99289015e-09,6.83092969e-09,1.45573431e-08,2.56205128e-08,4.1705197e-08
-5.0,3.71885623e-11,1.98988805e-09,6.81703071e-09,1.45149464e-08,2.55031743e-08,4.13485406e-08
-5.05,3.71472704e-11,1.98695474e-09,6.80349765e-09,1.44739014e-08,2.53906693e-08,4.10135446e-08
-5.1,3.71068498e-11,1.98408808e-09,6.79031657e-09,1.44341442e-08,2.52826996e-08,4.06981763e-08
-5.15,3.70672788e-11,1.98128605e-09,6.77747425e-09,1.43956151e-08,2.51789916e-08,4.04006646e-08
-5.2,3.70285365e-11,1.97854668e-09,6.76495817e-09,1.43582578e-08,2.50792938e-08,4.01194572e-08
-5.25,3.69906028e-11,1.97586813e-09,6.75275644e-09,1.43220198e-08,2.49833746e-08,3.98531866e-08
-5.3,3.69534585e-11,1.97324862e-09,6.74085778e-09,1.42868516e-08,2.48910203e-08,3.96006415e-08
-5.35,3.69170849e-11,1.97068644e-09,6.7292515e-09,1.42527066e-08,2.48020333e-08,3.93607451e-08
-5.4,3.68814644e-11,1.96817999e-09,6.71792742e-09,1.42195409e-08,2.47162307e-08,3.91325352e-08
-5.45,3.68465797e-11,1.9657277e-09,6.70687586e-09,1.41873134e-08,2.46334429e-08,3.89151492e-08
-5.5,3.68124143e-11,1.96332809e-09,6.69608764e-09,1.4155985e-08,2.45535122e-08,3.87078108e-08
-5.55,3.67789522e-11,1.96097973e-09,6.68555399e-09,1.4125519e-08,2.44762921e-08,3.85098192e-08
-5.6,3.67461783e-11,1.95868128e-09,6.67526659e-09,1.40958808e-08,2.4401646e-08,3.83205396e-08
-5.65,3.67140777e-11,1.95643141e-09,6.6652175e-09,1.40670375e-08,2.43294465e-08,3.81393954e-08
-5.7,3.6682636e-11,1.95422888e-09,6.65539915e-09,1.40389582e-08,2.42595747e-08,3.79658616e-08
-5.75,3.66518397e-11,1.95207249e-09,6.64580435e-09,1.40116134e-08,2.41919193e-08,3.77994586e-08
-5.8,3.66216754e-11,1.94996108e-09,6.6364262e-09,1.39849753e-08,2.41263762e-08,3.76397475e-08
-5.85,3.65921302e-11,1.94789356e-09,6.62725815e-09,1.39590176e-08,2.40628478e-08,3.74863256e-08
-5.9,3.65631918e-11,1.94586885e-09,6.61829393e-09,1.39337154e-08,2.40012426e-08,3.73388229e-08
-5.95,3.65348481e-11,1.94388594e-09,6.60952755e-09,1.39090449e-08,2.39414745e-08,3.71968984e-08
-6.0,3.65070877e-11,1.94194384e-09,6.6009533e-09,1.38849835e-08,2.38834628e-08,3.70602373e-08
-6.05,3.64798991e-11,1.94004162e-09,6.59256572e-09,1.386151e-08,2.38271314e-08,3.69285489e-08
-6.1,3.64532717e-11,1.93817837e-09,6.58435956e-09,1.38386041e-08,2.37724087e-08,3.68015636e-08
-6.15,3.64271948e-11,1.9363532e-09,6.57632984e-09,1.38162463e-08,2.37192272e-08,3.66790315e-08
-6.2,3.64016583e-11,1.93456528e-09,6.56847175e-09,1.37944184e-08,2.36675232e-08,3.65607204e-08
-6.25,3.63766523e-11,1.9328138e-09,6.56078072e-09,1.37731028e-08,2.36172367e-08,3.64464142e-08
-6.3,3.63521671e-11,1.93109798e-09,6.55325235e-09,1.37522829e-08,2.35683108e-08,3.63359117e-08
-6.35,3.63281934e-11,1.92941706e-09,6.54588243e-09,1.37319428e-08,2.35206919e-08,3.62290251e-08
-6.4,3.63047223e-11,1.92777032e-09,6.53866693e-09,1.37120675e-08,2.34743291e-08,3.61255789e-08
-6.45,3.62817448e-11,1.92615704e-09,6.53160196e-09,1.36926423e-08,2.34291744e-08,3.60254091e-08
-6.5,3.62592525e-11,1.92457657e-09,6.52468381e-09,1.36736538e-08,2.33851823e-08,3.59283621e-08
-6.55,3.62372371e-11,1.92302823e-09,6.51790892e-09,1.36550886e-08,2.33423096e-08,3.58342938e-08
-6.6,3.62156905e-11,1.9215114e-09,6.51127384e-09,1.36369342e-08,2.33005153e-08,3.57430693e-08
