vds,vb1,vb2,vb3,vb4,vb5,vb6
0.0,2.86503588e-06,2.64156102e-05,4.60627839e-05,6.23686419e-05,7.60372941e-05,8.75925074e-05
-0.05,1.59274556e-06,2.47593779e-05,4.45258455e-05,6.09546878e-05,7.47354079e-05,8.63908741e-05
-0.1,5.57802958e-07,2.31054787e-05,4.29907266e-05,5.95422821e-05,7.34348599e-05,8.51904071e-05
-0.15,1.21453024e-07,2.14540056e-05,4.14574312e-05,5.81314243e-05,7.2135649e-05,8.39911051e-05
-0.2,3.28793265e-08,1.98050991e-05,3.99259644e-05,5.67221135e-05,7.08377737e-05,8.27929668e-05
-0.25,1.37361867e-08,1.81589754e-05,3.83963331e-05,5.53143495e-05,6.9541233e-05,8.1595991e-05
-0.3,7.90163393e-09,1.65159762e-05,3.68685469e-05,5.39081321e-05,6.82460257e-05,8.04001766e-05
-0.35,5.55633078e-09,1.48766594e-05,3.5342618e-05,5.25034615e-05,6.69521506e-05,7.92055223e-05
-0.4,4.40479205e-09,1.32419675e-05,3.38185629e-05,5.11003383e-05,6.56596069e-05,7.80120271e-05
-0.45,3.74965015e-09,1.16135584e-05,3.22964029e-05,4.96987636e-05,6.43683935e-05,7.68196897e-05
-0.5,3.33330885e-09,9.99447731e-06,3.07761664e-05,4.82987389e-05,6.30785099e-05,7.56285091e-05
-0.55,3.04556097e-09,8.39057259e-06,2.92578911e-05,4.69002663e-05,6.17899552e-05,7.44384842e-05
-0.6,2.83356319e-09,6.81353599e-06,2.77416272e-05,4.55033489e-05,6.05027289e-05,7.32496142e-05
-0.65,2.66955637e-09,5.28724655e-06,2.62274426e-05,4.41079905e-05,5.92168307e-05,7.20618978e-05
-0.7,2.53782404e-09,3.85914297e-06,2.47154293e-05,4.2714196e-05,5.79322604e-05,7.08753344e-05
-0.75,2.42889259e-09,2.61142874e-06,2.32057148e-05,4.13219719e-05,5.66490178e-05,6.9689923e-05
-0.8,2.33673997e-09,1.643907e-06,2.16984769e-05,3.99313261e-05,5.53671033e-05,6.85056627e-05
-0.85,2.25736027e-09,1.00277647e-06,2.01939686e-05,3.85422688e-05,5.40865174e-05,6.7322553e-05
-0.9,2.18798241e-09,6.32852736e-07,1.86925558e-05,3.71548127e-05,5.28072607e-05,6.6140593e-05
-0.95,2.12662367e-09,4.33127342e-07,1.71947784e-05,3.57689737e-05,5.15293345e-05,6.49597822e-05
-1.0,2.07182319e-09,3.24430774e-07,1.57014501e-05,3.4384772e-05,5.02527403e-05,6.37801202e-05
-1.05,2.02247697e-09,2.62086121e-07,1.42138257e-05,3.30022328e-05,4.89774801e-05,6.26016065e-05
-1.1,1.97773195e-09,2.23771262e-07,1.27338865e-05,3.16213884e-05,4.77035565e-05,6.14242408e-05
-1.15,1.93691615e-09,1.98531863e-07,1.12648356e-05,3.02422796e-05,4.64309728e-05,6.02480229e-05
-1.2,1.89949122e-09,1.80834297e-07,9.81196248e-06,2.88649589e-05,4.51597329e-05,5.90729529e-05
-1.25,1.86501939e-09,1.67748635e-07,8.38413242e-06,2.7489494e-05,4.3889842e-05,5.78990309e-05
-1.3,1.83314005e-09,1.57641043e-07,6.99622361e-06,2.61159734e-05,4.26213059e-05,5.67262572e-05
-1.35,1.80355265e-09,1.49552885e-07,5.67259088e-06,2.47445131e-05,4.13541323e-05,5.55546324e-05
-1.4,1.77600416e-09,1.42894267e-07,4.4503218e-06,2.33752675e-05,4.00883301e-05,5.43841572e-05
-1.45,1.75027958e-09,1.37286048e-07,3.37782047e-06,2.20084442e-05,3.88239102e-05,5.32148325e-05
-1.5,1.72619474e-09,1.32474778e-07,2.50176154e-06,2.06443259e-05,3.75608862e-05,5.20466598e-05
-1.55,1.7035907e-09,1.28284957e-07,1.84365547e-06,1.92833029e-05,3.62992743e-05,5.08796408e-05
-1.6,1.68232942e-09,1.24591191e-07,1.38575024e-06,1.7925922e-05,3.50390944e-05,4.97137774e-05
-1.65,1.66229024e-09,1.21301356e-07,1.08265972e-06,1.65729612e-05,3.37803709e-05,4.85490723e-05
-1.7,1.64336715e-09,1.18346083e-07,8.85126803e-07,1.52255453e-05,3.2523134e-05,4.73855284e-05
-1.75,1.62546654e-09,1.15671986e-07,7.54620749e-07,1.38853264e-05,3.12674207e-05,4.62231496e-05
-1.8,1.60850536e-09,1.13237184e-07,6.65612783e-07,1.25547692e-05,3.00132772e-05,4.50619402e-05
-1.85,1.59240962e-09,1.11008258e-07,6.02446686e-07,1.12375992e-05,2.87607612e-05,4.39019055e-05
-1.9,1.57711317e-09,1.08958137e-07,5.55759058e-07,9.93949772e-06,2.75099454e-05,4.27430518e-05
-1.95,1.56255661e-09,1.07064601e-07,5.19925402e-07,8.66913528e-06,2.62609217e-05,4.15853865e-05
-2.0,1.54868646e-09,1.05309191e-07,4.91498612e-07,7.43957159e-06,2.50138079e-05,4.04289184e-05
-2.05,1.5354544e-09,1.03676415e-07,4.68306713e-07,6.26977671e-06,2.37687556e-05,3.92736581e-05
-2.1,1.52281667e-09,1.02153147e-07,4.48938512e-07,5.18535652e-06,2.25259622e-05,3.81196182e-05
-2.15,1.5107335e-09,1.00728171e-07,4.32448135e-07,4.21658541e-06,2.12856871e-05,3.69668134e-05
-2.2,1.49916866e-09,9.93918293e-08,4.18182221e-07,3.39177444e-06,2.00482752e-05,3.58152616e-05
-2.25,1.48808908e-09,9.81357528e-08,4.05676506e-07,2.72705438e-06,1.88141898e-05,3.46649842e-05
-2.3,1.47746451e-09,9.69526409e-08,3.94592346e-07,2.21889018e-06,1.75840606e-05,3.35160066e-05
-2.35,1.4672672e-09,9.583609e-08,3.8467676e-07,1.84577316e-06,1.63587546e-05,3.23683598e-05
-2.4,1.45747164e-09,9.47804549e-08,3.75736638e-07,1.57758364e-06,1.51394789e-05,3.12220812e-05
-2.45,1.44805434e-09,9.37807349e-08,3.6762168e-07,1.38513649e-06,1.39279335e-05,3.00772163e-05
-2.5,1.43899367e-09,9.28324812e-08,3.60212853e-07,1.24512715e-06,1.27265374e-05,2.89338209e-05
-2.55,1.43026959e-09,9.19317203e-08,3.53414415e-07,1.14086742e-06,1.15387575e-05,2.77919633e-05
-2.6,1.42186361e-09,9.107489e-08,3.47148277e-07,1.06106584e-06,1.03695776e-05,2.66517285e-05
-2.65,1.41375854e-09,9.02587858e-08,3.41349962e-07,9.98258458e-07,9.22613106e-06,2.55132221e-05
-2.7,1.40593845e-09,8.94805156e-08,3.35965635e-07,9.47523011e-07,8.1184652e-06,2.4376577e-05
-2.75,1.39838852e-09,8.87374621e-08,3.30949903e-07,9.05580037e-07,7.06026061e-06,2.32419609e-05
-2.8,1.39109495e-09,8.80272491e-08,3.26264148e-07,8.7020619e-07,6.06904352e-06,2.21095881e-05
-2.85,1.3840449e-09,8.73477146e-08,3.21875254e-07,8.3986197e-07,5.16509153e-06,2.09797339e-05
-2.9,1.37722635e-09,8.6696886e-08,3.17754617e-07,8.13457029e-07,4.36823547e-06,1.98527556e-05
-2.95,1.37062809e-09,8.60729595e-08,3.13877369e-07,7.90201398e-07,3.69276482e-06,1.87291213e-05
-3.0,1.36423963e-09,8.54742821e-08,3.10221761e-07,7.69510031e-07,3.14257577e-06,1.760945e-05
-3.05,1.35805114e-09,8.4899336e-08,3.0676867e-07,7.50940574e-07,2.70965655e-06,1.64945677e-05
-3.1,1.3520534e-09,8.43467243e-08,3.03501196e-07,7.34152069e-07,2.37705304e-06,1.53855872e-05
-3.15,1.34623777e-09,8.38151596e-08,3.0040434e-07,7.18877034e-07,2.12421491e-06,1.42840202e-05
-3.2,1.34059612e-09,8.33034529e-08,2.9746473e-07,7.04902245e-07,1.93162066e-06,1.31919347e-05
-3.25,1.33512082e-09,8.28105043e-08,2.94670402e-07,6.92055237e-07,1.78318104e-06,1.2112173e-05
-3.3,1.32980468e-09,8.23352949e-08,2.92010612e-07,6.80194687e-07,1.66672066e-06,1.10486461e-05
-3.35,1.32464093e-09,8.18768791e-08,2.89475678e-07,6.69203417e-07,1.57345951e-06,1.00067089e-05
-3.4,1.31962317e-09,8.14343783e-08,2.87056852e-07,6.58983238e-07,1.49721052e-06,8.99359575e-06
-3.45,1.3147454e-09,8.10069748e-08,2.84746201e-07,6.49451089e-07,1.43364108e-06,8.01882651e-06
-3.5,1.31000193e-09,8.05939066e-08,2.82536518e-07,6.40536101e-07,1.37970314e-06,7.09437822e-06
-3.55,1.30538738e-09,8.01944631e-08,2.80421236e-07,6.32177339e-07,1.33322776e-06,6.23427218e-06
-3.6,1.30089668e-09,7.98079801e-08,2.78394353e-07,6.24322045e-07,1.29264769e-06,5.45317043e-06
-3.65,1.29652501e-09,7.94338368e-08,2.7645038e-07,6.16924247e-07,1.25681065e-06,4.76383947e-06
-3.7,1.29226783e-09,7.90714516e-08,2.74584278e-07,6.09943657e-07,1.224854e-06,4.17405459e-06
-3.75,1.28812084e-09,7.87202798e-08,2.72791415e-07,6.03344783e-07,1.19612029e-06,3.6843004e-06
-3.8,1.28407994e-09,7.83798102e-08,2.71067526e-07,5.97096205e-07,1.17009973e-06,3.28758955e-06
-3.85,1.28014125e-09,7.80495625e-08,2.69408675e-07,5.91169986e-07,1.14639057e-06,2.97153654e-06
-3.9,1.27630111e-09,7.77290856e-08,2.67811226e-07,5.85541185e-07,1.1246714e-06,2.721489e-06
-3.95,1.27255602e-09,7.74179548e-08,2.66271809e-07,5.80187451e-07,1.10468154e-06,2.52324706e-06
-4.0,1.26890265e-09,7.71157704e-08,2.64787302e-07,5.75088684e-07,1.08620684e-06,2.36463044e-06
-4.05,1.26533787e-09,7.68221554e-08,2.63354806e-07,5.70226749e-07,1.06906938e-06,2.23596677e-06
-4.1,1.26185867e-09,7.65367546e-08,2.61971625e-07,5.65585238e-07,1.05311982e-06,2.12992593e-06
-4.15,1.25846219e-09,7.62592325e-08,2.60635246e-07,5.61149258e-07,1.03823161e-06,2.04109184e-06
-4.2,1.25514572e-09,7.59892721e-08,2.59343328e-07,5.56905259e-07,1.0242966e-06,1.9655039e-06
-4.25,1.25190667e-09,7.57265741e-08,2.58093687e-07,5.52840882e-07,1.01122168e-06,1.90026599e-06
-4.3,1.24874258e-09,7.54708549e-08,2.56884278e-07,5.48944827e-07,9.98926131e-07,1.84324602e-06
-4.35,1.24565109e-09,7.52218465e-08,2.55713189e-07,5.45206737e-07,9.87339516e-07,1.79285689e-06
-4.4,1.24262997e-09,7.49792949e-08,2.5457863e-07,5.41617107e-07,9.76400035e-07,1.74790107e-06
-4.45,1.23967708e-09,7.47429593e-08,2.53478922e-07,5.38167187e-07,9.66053179e-07,1.70746147e-06
-4.5,1.23679037e-09,7.45126116e-08,2.52412487e-07,5.34848915e-07,9.56250638e-07,1.67082514e-06
-4.55,1.2339679e-09,7.4288035e-08,2.51377844e-07,5.31654844e-07,9.46949414e-07,1.63742947e-06
-4.6,1.2312078e-09,7.4069024e-08,2.50373601e-07,5.28578087e-07,9.38111075e-07,1.60682419e-06
-4.65,1.2285083e-09,7.38553834e-08,2.49398447e-07,5.25612265e-07,9.2970115e-07,1.57864407e-06
-4.7,1.22586768e-09,7.36469276e-08,2.48451145e-07,5.22751456e-07,9.21688608e-07,1.55258918e-06
-4.75,1.22328433e-09,7.344348e-08,2.47530532e-07,5.19990159e-07,9.14045428e-07,1.52841042e-06
-4.8,1.22075668e-09,7.32448729e-08,2.46635509e-07,5.17323255e-07,9.06746229e-07,1.50589874e-06
-4.85,1.21828324e-09,7.30509464e-08,2.45765037e-07,5.14745973e-07,8.99767962e-07,1.48487706e-06
-4.9,1.21586259e-09,7.28615486e-08,2.44918137e-07,5.12253864e-07,8.93089635e-07,1.46519407e-06
-4.95,1.21349334e-09,7.26765344e-08,2.44093881e-07,5.0984277e-07,8.86692087e-07,1.4467195e-06
-5.0,1.2111742e-09,7.24957658e-08,2.43291392e-07,5.07508804e-07,8.80557785e-07,1.42934039e-06
-5.05,1.20890389e-09,7.2319111e-08,2.4250984e-07,5.05248326e-07,8.74670653e-07,1.41295819e-06
-5.1,1.20668122e-09,7.21464445e-08,2.41748437e-07,5.03057925e-07,8.69015919e-07,1.39748638e-06
-5.15,1.20450501e-09,7.19776463e-08,2.41006437e-07,5.00934401e-07,8.63579983e-07,1.38284866e-06
-5.2,1.20237417e-09,7.18126021e-08,2.40283133e-07,4.98874749e-07,8.58350302e-07,1.36897737e-06
-5.25,1.2002876e-09,7.16512025e-08,2.39577854e-07,4.96876142e-07,8.53315286e-07,1.35581225e-06
-5.3,1.1982443e-09,7.1493343e-08,2.38889961e-07,4.94935924e-07,8.4846421e-07,1.34329943e-06
-5.35,1.19624326e-09,7.13389238e-08,2.38218849e-07,4.93051592e-07,8.4378713e-07,1.33139059e-06
-5.4,1.19428354e-09,7.11878493e-08,2.37563942e-07,4.91220787e-07,8.39274816e-07,1.32004218e-06
-5.45,1.19236421e-09,7.10400283e-08,2.36924692e-07,4.89441283e-07,8.34918687e-07,1.30921488e-06
-5.5,1.19048441e-09,7.08953731e-08,2.36300579e-07,4.87710982e-07,8.30710754e-07,1.29887305e-06
-5.55,1.18864326e-09,7.07538001e-08,2.35691106e-07,4.860279e-07,8.26643568e-07,1.28898431e-06
-5.6,1.18683996e-09,7.06152291e-08,2.35095801e-07,4.84390162e-07,8.2271018e-07,1.27951916e-06
-5.65,1.18507372e-09,7.0479583e-08,2.34514214e-07,4.82795995e-07,8.18904092e-07,1.27045065e-06
-5.7,1.18334377e-09,7.03467882e-08,2.33945916e-07,4.8124372e-07,8.15219227e-07,1.26175413e-06
-5.75,1.18164937e-09,7.0216774e-08,2.33390499e-07,4.79731747e-07,8.11649893e-07,1.25340698e-06
-5.8,1.17998982e-09,7.00894724e-08,2.32847571e-07,4.7825857e-07,8.08190753e-07,1.24538839e-06
-5.85,1.17836442e-09,6.99648183e-08,2.3231676e-07,4.76822761e-07,8.04836799e-07,1.23767922e-06
-5.9,1.17677252e-09,6.9842749e-08,2.3179771e-07,4.75422964e-07,8.01583325e-07,1.2302618e-06
-5.95,1.17521347e-09,6.97232045e-08,2.31290083e-07,4.74057894e-07,7.98425907e-07,1.22311978e-06
-6.0,1.17368665e-09,6.96061268e-08,2.30793553e-07,4.72726327e-07,7.9536038e-07,1.21623806e-06
-6.05,1.17219145e-09,6.94914604e-08,2.30307809e-07,4.71427103e-07,7.92382822e-07,1.20960261e-06
-6.1,1.17072729e-09,6.93791517e-08,2.29832555e-07,4.70159119e-07,7.89489536e-07,1.2032004e-06
-6.15,1.16929362e-09,6.92691491e-08,2.29367507e-07,4.68921324e-07,7.86677032e-07,1.19701933e-06
-6.2,1.16788987e-09,6.91614031e-08,2.28912392e-07,4.6771272e-07,7.83942019e-07,1.19104813e-06
-6.25,1.16651552e-09,6.90558658e-08,2.28466951e-07,4.66532355e-07,7.81281383e-07,1.18527626e-06
-6.3,1.16517005e-09,6.8952491e-08,2.28030934e-07,4.65379324e-07,7.78692183e-07,1.17969392e-06
-6.35,1.16385297e-09,6.88512343e-08,2.27604101e-07,4.64252763e-07,7.76171634e-07,1.17429193e-06
-6.4,1.16256378e-09,6.87520528e-08,2.27186224e-07,4.63151848e-07,7.73717102e-07,1.1690617e-06
-6.45,1.16130201e-09,6.8654905e-08,2.26777082e-07,4.62075796e-07,7.71326091e-07,1.16399519e-06
-6.5,1.1600672e-09,6.85597508e-08,2.26376464e-07,4.61023858e-07,7.68996233e-07,1.15908485e-06
-6.55,1.15885891e-09,6.84665516e-08,2.25984168e-07,4.59995317e-07,7.66725285e-07,1.15432359e-06
-6.6,1.15767669e-09,6.83752699e-08,2.25599998e-07,4.58989493e-07,7.64511118e-07,1.14970476e-06
