vds,vb1,vb2,vb3,vb4,vb5,vb6
0.0,1.39418065e-06,1.30556041e-05,2.28549779e-05,3.10235408e-05,3.78917727e-05,4.37096866e-05
-0.05,7.64118469e-07,1.22331004e-05,2.20942686e-05,3.03261745e-05,3.72519999e-05,4.3121339e-05
-0.1,2.58659153e-07,1.14112354e-05,2.13340143e-05,2.962919e-05,3.66125555e-05,4.25332768e-05
-0.15,5.46067989e-08,1.05900586e-05,2.05742177e-05,2.8932588e-05,3.59734397e-05,4.19454998e-05
-0.2,1.44167792e-08,9.76964394e-06,1.98148826e-05,2.82363688e-05,3.53346525e-05,4.13580081e-05
-0.25,5.74596933e-09,8.95010501e-06,1.90560136e-05,2.75405333e-05,3.46961939e-05,4.07708016e-05
-0.3,3.11668404e-09,8.13162122e-06,1.82976166e-05,2.6845082e-05,3.40580641e-05,4.01838803e-05
-0.35,2.0779536e-09,7.31448551e-06,1.75396988e-05,2.6150016e-05,3.34202632e-05,3.95972441e-05
-0.4,1.58290943e-09,6.4991941e-06,1.67822696e-05,2.54553365e-05,3.27827914e-05,3.90108929e-05
-0.45,1.31227104e-09,5.68662284e-06,1.6025341e-05,2.47610446e-05,3.21456489e-05,3.84248269e-05
-0.5,1.14807386e-09,4.87838746e-06,1.52689284e-05,2.40671421e-05,3.15088359e-05,3.7839046e-05
-0.55,1.04003587e-09,4.07760627e-06,1.4513052e-05,2.33736308e-05,3.08723529e-05,3.72535503e-05
-0.6,9.64232649e-10,3.29054111e-06,1.37577383e-05,2.26805131e-05,3.02362003e-05,3.66683397e-05
-0.65,9.08242416e-10,2.53000977e-06,1.30030229e-05,2.19877916e-05,2.96003784e-05,3.60834144e-05
-0.7,8.65140209e-10,1.82137637e-06,1.22489537e-05,2.12954698e-05,2.89648878e-05,3.54987744e-05
-0.75,8.30829919e-10,1.20782094e-06,1.14955964e-05,2.06035515e-05,2.83297293e-05,3.49144199e-05
-0.8,8.02764086e-10,7.39365487e-07,1.07430426e-05,1.99120415e-05,2.76949035e-05,3.4330351e-05
-0.85,7.79288681e-10,4.35094837e-07,9.99142203e-06,1.92209458e-05,2.70604113e-05,3.37465679e-05
-0.9,7.59288897e-10,2.63048579e-07,9.24092199e-06,1.85302713e-05,2.64262538e-05,3.31630708e-05
-0.95,7.41988411e-10,1.71954921e-07,8.4918183e-06,1.78400268e-05,2.57924321e-05,3.25798598e-05
-1.0,7.26830841e-10,1.2346445e-07,7.74452623e-06,1.71502232e-05,2.51589476e-05,3.19969354e-05
-1.05,7.13407175e-10,9.64234264e-08,6.99968563e-06,1.64608736e-05,2.45258021e-05,3.14142978e-05
-1.1,7.01409869e-10,8.03791826e-08,6.25830627e-06,1.57719947e-05,2.38929973e-05,3.08319473e-05
-1.15,6.90602989e-10,7.02352619e-08,5.52201994e-06,1.50836076e-05,2.32605355e-05,3.02498846e-05
-1.2,6.8080226e-10,6.3432519e-08,4.79352054e-06,1.43957388e-05,2.26284193e-05,2.96681099e-05
-1.25,6.7186143e-10,5.86263114e-08,4.07732249e-06,1.37084225e-05,2.19966516e-05,2.90866241e-05
-1.3,6.63662741e-10,5.50746096e-08,3.3810022e-06,1.30217028e-05,2.13652362e-05,2.85054275e-05
-1.35,6.56110147e-10,5.23479356e-08,2.71696582e-06,1.23356372e-05,2.07341771e-05,2.79245212e-05
-1.4,6.49124393e-10,5.01864316e-08,2.1041214e-06,1.16503019e-05,2.01034794e-05,2.73439058e-05
-1.45,6.42639391e-10,4.8426364e-08,1.56718822e-06,1.09657988e-05,1.94731489e-05,2.67635825e-05
-1.5,6.36599504e-10,4.69607058e-08,1.13007411e-06,1.0282266e-05,1.88431927e-05,2.61835523e-05
-1.55,6.3095749e-10,4.57171382e-08,8.03875042e-07,9.59989323e-06,1.82136192e-05,2.56038165e-05
-1.6,6.25672922e-10,4.46453113e-08,5.79547591e-07,8.91894518e-06,1.75844385e-05,2.50243766e-05
-1.65,6.20710953e-10,4.37092124e-08,4.33790234e-07,8.23979671e-06,1.69556629e-05,2.44452343e-05
-1.7,6.16041355e-10,4.28824496e-08,3.41277567e-07,7.56298743e-06,1.63273071e-05,2.38663915e-05
-1.75,6.11637744e-10,4.21452534e-08,2.82225954e-07,6.88930668e-06,1.56993894e-05,2.32878505e-05
-1.8,6.07476971e-10,4.14825188e-08,2.43581149e-07,6.21992721e-06,1.50719321e-05,2.27096138e-05
-1.85,6.03538617e-10,4.08824975e-08,2.17392596e-07,5.55661559e-06,1.44449629e-05,2.21316843e-05
-1.9,5.99804592e-10,4.03359036e-08,1.98952206e-07,4.90205941e-06,1.38185164e-05,2.15540655e-05
-1.95,5.96258796e-10,3.98352899e-08,1.85468371e-07,4.26035903e-06,1.31926359e-05,2.09767613e-05
-2.0,5.92886845e-10,3.93746051e-08,1.75257573e-07,3.6377105e-06,1.25673767e-05,2.03997762e-05
-2.05,5.89675843e-10,3.89488731e-08,1.67279271e-07,3.04319734e-06,1.19428094e-05,1.98231156e-05
-2.1,5.86614183e-10,3.85539581e-08,1.60872217e-07,2.48931427e-06,1.13190251e-05,1.92467858e-05
-2.15,5.83691386e-10,3.81863884e-08,1.55604052e-07,1.99135269e-06,1.06961428e-05,1.86707939e-05
-2.2,5.80897966e-10,3.78432243e-08,1.51184066e-07,1.56454212e-06,1.00743196e-05,1.80951486e-05
-2.25,5.78225307e-10,3.75219563e-08,1.47411519e-07,1.21898576e-06,9.45376503e-06,1.751986e-05
-2.3,5.75665566e-10,3.72204262e-08,1.44144275e-07,9.55108857e-07,8.83476183e-06,1.69449403e-05
-2.35,5.73211585e-10,3.69367653e-08,1.4127932e-07,7.63363747e-07,8.21769629e-06,1.63704036e-05
-2.4,5.70856813e-10,3.66693461e-08,1.38740368e-07,6.28510104e-07,7.60310243e-06,1.57962674e-05
-2.45,5.68595245e-10,3.64167424e-08,1.36469794e-07,5.34894627e-07,6.99172721e-06,1.52225523e-05
-2.5,5.66421364e-10,3.61776984e-08,1.34423269e-07,4.69630593e-07,6.38462674e-06,1.46492835e-05
-2.55,5.64330088e-10,3.5951103e-08,1.32566122e-07,4.23368519e-07,5.78330746e-06,1.40764917e-05
-2.6,5.62316732e-10,3.57359684e-08,1.3087082e-07,3.89779163e-07,5.18992989e-06,1.35042145e-05
-2.65,5.60376965e-10,3.55314133e-08,1.29315195e-07,3.6471552e-07,4.60759188e-06,1.29324984e-05
-2.7,5.5850678e-10,3.53366479e-08,1.27881171e-07,3.4548615e-07,4.04069378e-06,1.23614012e-05
-2.75,5.5670246e-10,3.51509623e-08,1.26553839e-07,3.3033613e-07,3.49534077e-06,1.17909956e-05
-2.8,5.54960555e-10,3.49737162e-08,1.25320776e-07,3.1810622e-07,2.97962923e-06,1.12213731e-05
-2.85,5.53277855e-10,3.48043301e-08,1.24171525e-07,3.0801706e-07,2.50349301e-06,1.06526507e-05
-2.9,5.51651374e-10,3.46422783e-08,1.23097216e-07,2.99534137e-07,2.07765389e-06,1.00849783e-05
-2.95,5.50078325e-10,3.44870822e-08,1.22090257e-07,2.92283163e-07,1.71142459e-06,9.51855082e-06
-3.0,5.48556106e-10,3.43383056e-08,1.2114411e-07,2.85996548e-07,1.4099099e-06,8.95362325e-06
-3.05,5.47082287e-10,3.41955494e-08,1.20253101e-07,2.8047908e-07,1.17209352e-06,8.39053266e-06
-3.1,5.45654591e-10,3.40584477e-08,1.19412282e-07,2.7558557e-07,9.91156245e-07,7.82972876e-06
-3.15,5.44270887e-10,3.39266646e-08,1.18617307e-07,2.71206048e-07,8.5682382e-07,7.27181699e-06
-3.2,5.42929175e-10,3.37998911e-08,1.17864346e-07,2.67255784e-07,7.58195641e-07,6.71761918e-06
-3.25,5.41627578e-10,3.3677842e-08,1.17150005e-07,2.63668452e-07,6.8569312e-07,6.16825845e-06
-3.3,5.40364332e-10,3.35602539e-08,1.16471261e-07,2.60391365e-07,6.31813913e-07,5.62527638e-06
-3.35,5.39137777e-10,3.34468834e-08,1.15825413e-07,2.57382097e-07,5.91076706e-07,5.09078985e-06
-3.4,5.37946351e-10,3.33375044e-08,1.15210038e-07,2.54606063e-07,5.59629596e-07,4.56769018e-06
-3.45,5.36788583e-10,3.32319072e-08,1.14622957e-07,2.52034742e-07,5.34814302e-07,4.05987054e-06
-3.5,5.35663084e-10,3.31298971e-08,1.140622e-07,2.49644367e-07,5.1480407e-07,3.57243236e-06
-3.55,5.34568543e-10,3.30312925e-08,1.13525982e-07,2.47414947e-07,4.98337568e-07,3.11175906e-06
-3.6,5.33503724e-10,3.29359242e-08,1.13012682e-07,2.45329516e-07,4.84534721e-07,2.68527082e-06
-3.65,5.32467457e-10,3.28436343e-08,1.12520824e-07,2.43373563e-07,4.72772892e-07,2.30065122e-06
-3.7,5.31458635e-10,3.27542751e-08,1.1204906e-07,2.4153458e-07,4.62604571e-07,1.96448428e-06
-3.75,5.30476213e-10,3.26677087e-08,1.11596155e-07,2.39801722e-07,4.53702712e-07,1.6806217e-06
-3.8,5.29519197e-10,3.25838056e-08,1.11160977e-07,2.38165519e-07,4.45824244e-07,1.44900203e-06
-3.85,5.28586648e-10,3.25024444e-08,1.10742485e-07,2.36617662e-07,4.38785485e-07,1.26560742e-06
-3.9,5.27677675e-10,3.24235114e-08,1.10339721e-07,2.35150819e-07,4.32445389e-07,1.12360881e-06
-3.95,5.26791432e-10,3.23468994e-08,1.09951799e-07,2.33758489e-07,4.26693977e-07,1.01505292e-06
-4.0,5.25927117e-10,3.22725078e-08,1.09577901e-07,2.32434885e-07,4.21444251e-07,9.32311218e-07
-4.05,5.25083967e-10,3.2200242e-08,1.09217269e-07,2.31174831e-07,4.16626458e-07,8.68903421e-07
-4.1,5.24261258e-10,3.21300125e-08,1.08869201e-07,2.29973683e-07,4.12183958e-07,8.19740328e-07
-4.15,5.23458299e-10,3.20617353e-08,1.08533044e-07,2.28827259e-07,4.08070227e-07,7.81017087e-07
-4.2,5.22674436e-10,3.19953309e-08,1.0820819e-07,2.27731777e-07,4.04246635e-07,7.49968783e-07
-4.25,5.21909044e-10,3.19307242e-08,1.07894072e-07,2.26683813e-07,4.00680791e-07,7.24613565e-07
-4.3,5.21161529e-10,3.18678445e-08,1.07590164e-07,2.25680253e-07,3.97345283e-07,7.0353578e-07
-4.35,5.20431325e-10,3.18066245e-08,1.07295971e-07,2.24718257e-07,3.94216725e-07,6.85720607e-07
-4.4,5.19717892e-10,3.1747001e-08,1.07011032e-07,2.23795233e-07,3.91275007e-07,6.70434554e-07
-4.45,5.19020714e-10,3.16889136e-08,1.06734915e-07,2.22908806e-07,3.8850272e-07,6.57141466e-07
-4.5,5.18339301e-10,3.16323056e-08,1.06467216e-07,2.22056795e-07,3.85884694e-07,6.45444284e-07
-4.55,5.17673183e-10,3.15771228e-08,1.06207554e-07,2.21237195e-07,3.83407631e-07,6.35044798e-07
-4.6,5.17021914e-10,3.15233141e-08,1.05955573e-07,2.20448158e-07,3.81059813e-07,6.2571578e-07
-4.65,5.16385064e-10,3.14708308e-08,1.05710938e-07,2.19687977e-07,3.7883086e-07,6.17281579e-07
-4.7,5.15762225e-10,3.14196266e-08,1.05473331e-07,2.18955073e-07,3.76711538e-07,6.09604492e-07
-4.75,5.15153005e-10,3.13696578e-08,1.05242457e-07,2.18247984e-07,3.74693597e-07,6.02575098e-07
-4.8,5.14557031e-10,3.13208826e-08,1.05018035e-07,2.17565351e-07,3.72769633e-07,5.96105323e-07
-4.85,5.13973945e-10,3.12732612e-08,1.04799801e-07,2.16905912e-07,3.70932984e-07,5.90123412e-07
-4.9,5.13403402e-10,3.12267558e-08,1.04587504e-07,2.16268492e-07,3.69177629e-07,5.84570243e-07
-4.95,5.12845076e-10,3.11813304e-08,1.04380909e-07,2.15651998e-07,3.67498114e-07,5.79396588e-07
-5.0,5.1229865e-10,3.11369508e-08,1.04179793e-07,2.15055405e-07,3.65889481e-07,5.74561053e-07
-5.05,5.11763823e-10,3.10935843e-08,1.03983946e-07,2.1447776e-07,3.64347211e-07,5.70028525e-07
-5.1,5.11240305e-10,3.10511996e-08,1.03793166e-07,2.13918169e-07,3.62867176e-07,5.65768963e-07
-5.15,5.10727818e-10,3.10097671e-08,1.03607265e-07,2.13375794e-07,3.61445595e-07,5.6175648e-07
-5.2,5.10226095e-10,3.09692584e-08,1.03426064e-07,2.1284985e-07,3.60078996e-07,5.57968604e-07
-5.25,5.0973488e-10,3.09296463e-08,1.03249392e-07,2.123396e-07,3.58764187e-07,5.54385708e-07
-5.3,5.09253927e-10,3.0890905e-08,1.03077088e-07,2.11844353e-07,3.57498224e-07,5.50990548e-07
-5.35,5.08782998e-10,3.08530097e-08,1.02908999e-07,2.11363457e-07,3.56278388e-07,5.47767893e-07
-5.4,5.08321865e-10,3.08159368e-08,1.02744978e-07,2.10896298e-07,3.55102164e-07,5.4470422e-07
-5.45,5.0787031e-10,3.07796636e-08,1.02584887e-07,2.10442299e-07,3.53967222e-07,5.4178747e-07
-5.5,5.07428121e-10,3.07441685e-08,1.02428595e-07,2.10000916e-07,3.52871398e-07,5.39006847e-07
-5.55,5.06995094e-10,3.07094307e-08,1.02275976e-07,2.09571634e-07,3.51812681e-07,5.36352643e-07
-5.6,5.06571034e-10,3.06754303e-08,1.0212691e-07,2.09153968e-07,3.50789196e-07,5.338161e-07
-5.65,5.06155751e-10,3.06421483e-08,1.01981285e-07,2.0874746e-07,3.49799199e-07,5.31389289e-07
-5.7,5.05749064e-10,3.06095666e-08,1.01838991e-07,2.08351674e-07,3.48841058e-07,5.29065014e-07
-5.75,5.05350795e-10,3.05776674e-08,1.01699925e-07,2.079662e-07,3.4791325e-07,5.26836717e-07
-5.8,5.04960776e-10,3.05464342e-08,1.01563989e-07,2.0759065e-07,3.4701435e-07,5.24698415e-07
-5.85,5.04578842e-10,3.05158507e-08,1.01431089e-07,2.07224654e-07,3.4614302e-07,5.22644627e-07
-5.9,5.04204834e-10,3.04859014e-08,1.01301135e-07,2.06867863e-07,3.45298008e-07,5.20670327e-07
-5.95,5.03838599e-10,3.04565715e-08,1.01174041e-07,2.06519946e-07,3.44478136e-07,5.18770892e-07
-6.0,5.03479989e-10,3.04278467e-08,1.01049726e-07,2.06180587e-07,3.436823e-07,5.16942062e-07
-6.05,5.03128859e-10,3.03997132e-08,1.00928111e-07,2.05849488e-07,3.42909458e-07,5.15179903e-07
-6.1,5.0278507e-10,3.03721578e-08,1.00809121e-07,2.05526364e-07,3.42158631e-07,5.13480779e-07
-6.15,5.02448488e-10,3.03451677e-08,1.00692685e-07,2.05210946e-07,3.41428896e-07,5.11841317e-07
-6.2,5.02118982e-10,3.03187306e-08,1.00578734e-07,2.04902975e-07,3.40719382e-07,5.10258389e-07
-6.25,5.01796425e-10,3.02928348e-08,1.00467202e-07,2.04602208e-07,3.40029268e-07,5.08729087e-07
-6.3,5.01480693e-10,3.02674688e-08,1.00358027e-07,2.04308411e-07,3.39357776e-07,5.07250703e-07
-6.35,5.01171668e-10,3.02426217e-08,1.00251148e-07,2.04021363e-07,3.38704173e-07,5.05820713e-07
-6.4,5.00869234e-10,3.02182828e-08,1.00146508e-07,2.03740852e-07,3.38067765e-07,5.04436759e-07
-6.45,5.00573277e-10,3.01944419e-08,1.00044051e-07,2.03466677e-07,3.37447893e-07,5.03096639e-07
-6.5,5.00283688e-10,3.01710891e-08,9.99437233e-08,2.03198644e-07,3.36843937e-07,5.01798293e-07
-6.55,5.0000036e-10,3.01482148e-08,9.98454746e-08,2.02936571e-07,3.36255305e-07,5.00539787e-07
-6.6,4.9972319e-10,3.01258097e-08,9.97492556e-08,2.02680281e-07,3.35681437e-07,4.99319311e-07
