vds,vb1,vb2,vb3,vb4,vb5,vb6
0.0,4.93668571e-05,0.000318928294,0.000513312213,0.000662259486,0.000780852018,0.000878010608
-0.05,3.41041223e-05,0.000299752926,0.000494692833,0.000644497766,0.000763973168,0.000861970728
-0.1,1.98251847e-05,0.000280877111,0.000476325302,0.000626950315,0.00074727897,0.000846091879
-0.15,8.61726405e-06,0.000262295404,0.000458205176,0.000609613724,0.000730766752,0.000830371918
-0.2,3.38137897e-06,0.000244002807,0.000440328128,0.000592484652,0.000714433889,0.000814808738
-0.25,1.93950206e-06,0.00022599492,0.00042268994,0.000575559827,0.000698277803,0.000799400268
-0.3,1.52165726e-06,0.000208268188,0.000405286511,0.000558836044,0.000682295964,0.000784144469
-0.35,1.35118734e-06,0.000190820333,0.000388113861,0.000542310163,0.000666485885,0.000769039337
-0.4,1.25742106e-06,0.000173651124,0.000371168132,0.000525979109,0.000650845125,0.000754082897
-0.45,1.19496606e-06,0.000156763767,0.0003544456,0.000509839872,0.000635371284,0.000739273209
-0.5,1.1485038e-06,0.000140167573,0.000337942692,0.000493889505,0.000620062006,0.000724608361
-0.55,1.11167436e-06,0.000123883196,0.000321655996,0.000478125125,0.000604914978,0.000710086474
-0.6,1.08134843e-06,0.000107953304,0.000305582297,0.000462543915,0.000589927926,0.000695705696
-0.65,1.05576409e-06,9.24645545e-05,0.000289718612,0.000447143123,0.000575098619,0.000681464207
-0.7,1.03382098e-06,7.75914167e-05,0.00027406225,0.000431920063,0.000560424868,0.000667360215
-0.75,1.01477636e-06,6.36711456e-05,0.000258610904,0.000416872119,0.000545904521,0.000653391956
-0.8,9.98099144e-07,5.1275201e-05,0.000243362777,0.000401996747,0.000531535472,0.000639557697
-0.85,9.83392947e-07,4.11058937e-05,0.0002283168,0.000387291475,0.000517315651,0.000625855731
-0.9,9.70352238e-07,3.35496049e-05,0.000213472959,0.000372753914,0.000503243031,0.000612284382
-0.95,9.58735605e-07,2.83149952e-05,0.000198832835,0.000358381757,0.000489315626,0.000598842
-1.0,9.48348558e-07,2.4716998e-05,0.000184400499,0.000344172791,0.00047553149,0.000585526964
-1.05,9.39031932e-07,2.21445658e-05,0.000170184028,0.00033012491,0.000461888718,0.000572337679
-1.1,9.30653787e-07,2.02067684e-05,0.000156198127,0.000316236125,0.000448385446,0.000559272582
-1.15,9.23103557e-07,1.86793285e-05,0.00014246871,0.00030250459,0.000435019853,0.000546330133
-1.2,9.16287727e-07,1.74333059e-05,0.000129040841,0.000288928631,0.000421790158,0.000533508821
-1.25,9.10126565e-07,1.63908971e-05,0.000115991918,0.000275506784,0.000408694622,0.000520807163
-1.3,9.04551604e-07,1.55022705e-05,0.000103450979,0.00026223786,0.000395731551,0.000508223702
-1.35,8.99503677e-07,1.47336918e-05,9.16185271e-05,0.000249121029,0.000382899294,0.000495757008
-1.4,8.94931364e-07,1.40612392e-05,8.07644252e-05,0.000236155947,0.000370196242,0.000483405676
-1.45,8.90789744e-07,1.34673053e-05,7.11673933e-05,0.000223342952,0.000357620834,0.000471168329
-1.5,8.87039385e-07,1.29385393e-05,6.29984909e-05,0.000210683354,0.000345171556,0.000459043614
-1.55,8.83645526e-07,1.24645742e-05,5.62398747e-05,0.000198179907,0.000332846938,0.000447030203
-1.6,8.80577401e-07,1.20372022e-05,5.0718069e-05,0.000185837551,0.000320645558,0.000435126791
-1.65,8.77807671e-07,1.16498197e-05,4.62013989e-05,0.000173664657,0.000308566043,0.0004233321
-1.7,8.75311965e-07,1.12970416e-05,4.24730886e-05,0.000161675116,0.000296607061,0.000411644869
-1.75,8.73068483e-07,1.09744251e-05,3.93579817e-05,0.000149891894,0.000284767315,0.00040006386
-1.8,8.71057664e-07,1.06782672e-05,3.67226204e-05,0.000138352958,0.000273045536,0.000388587852
-1.85,8.69261909e-07,1.04054546e-05,3.44670113e-05,0.000127120357,0.000261440449,0.000377215638
-1.9,8.67665337e-07,1.01533484e-05,3.2516052e-05,0.000116291406,0.000249950744,0.00036594602
-1.95,8.66253582e-07,9.91969607e-06,3.08127421e-05,0.00010600526,0.000238574996,0.000354777805
-2.0,8.65013619e-07,9.70256248e-06,2.93132433e-05,9.64308981e-05,0.000227311569,0.000343709789
-2.05,8.63933608e-07,9.50027522e-06,2.79833755e-05,8.77272633e-05,0.000216158447,0.000332740748
-2.1,8.63002764e-07,9.31138121e-06,2.67961355e-05,7.99925143e-05,0.000205113031,0.000321869413
-2.15,8.62211243e-07,9.13461158e-06,2.57299274e-05,7.32378747e-05,0.00019417193,0.000311094441
-2.2,8.61550039e-07,8.96885325e-06,2.47672836e-05,6.74001259e-05,0.000183330968,0.000300414365
-2.25,8.61010902e-07,8.81312559e-06,2.38939287e-05,6.23743213e-05,0.000172585982,0.000289827527
-2.3,8.60586257e-07,8.66656121e-06,2.30980863e-05,5.80437051e-05,0.000161935715,0.000279331971
-2.35,8.60269137e-07,8.52839e-06,2.23699561e-05,5.4297762e-05,0.000151389046,0.000268925287
-2.4,8.60053125e-07,8.39792584e-06,2.17013184e-05,5.1039932e-05,0.000140978745,0.000258604383
-2.45,8.599323e-07,8.2745554e-06,2.1085228e-05,4.81892342e-05,0.00013077986,0.000248365136
-2.5,8.59901189e-07,8.15772875e-06,2.05157774e-05,4.56790957e-05,0.000120921165,0.000238201899
-2.55,8.59954731e-07,8.04695133e-06,1.99879103e-05,4.34552345e-05,0.000111571732,0.000228106805
-2.6,8.60088231e-07,7.94177715e-06,1.9497274e-05,4.14734548e-05,0.000102898528,0.00021806886
-2.65,8.60297336e-07,7.84180298e-06,1.90401011e-05,3.96976889e-05,9.50186347e-05,0.000208072925
-2.7,8.60578001e-07,7.7466633e-06,1.86131149e-05,3.80983697e-05,8.79758836e-05,0.000198098985
-2.75,8.6092646e-07,7.65602604e-06,1.82134518e-05,3.66511233e-05,8.1748277e-05,0.000188122729
-2.8,8.61339208e-07,7.56958879e-06,1.78385987e-05,3.53357332e-05,7.62712948e-05,0.000178119493
-2.85,8.61812976e-07,7.4870756e-06,1.74863406e-05,3.41353248e-05,7.14611258e-05,0.000168074492
-2.9,8.62344712e-07,7.40823412e-06,1.71547181e-05,3.30357244e-05,6.72307738e-05,0.000158001172
-2.95,8.62931564e-07,7.33283313e-06,1.68419914e-05,3.20249539e-05,6.34988493e-05,0.000147963575
-3.0,8.63570866e-07,7.26066042e-06,1.65466106e-05,3.10928313e-05,6.01932768e-05,0.000138088891
-3.05,8.6426012e-07,7.1915208e-06,1.62671902e-05,3.02306519e-05,5.72521111e-05,0.0001285536
-3.1,8.64996985e-07,7.1252345e-06,1.60024884e-05,2.94309346e-05,5.46229528e-05,0.000119542259
-3.15,8.65779268e-07,7.06163563e-06,1.57513884e-05,2.8687217e-05,5.22618118e-05,0.000111200848
-3.2,8.66604907e-07,7.00057091e-06,1.55128835e-05,2.79938901e-05,5.01318525e-05,0.000103610086
-3.25,8.67471968e-07,6.94189847e-06,1.52860637e-05,2.7346063e-05,4.82022135e-05,9.6785671e-05
-3.3,8.68378631e-07,6.88548679e-06,1.50701044e-05,2.67394531e-05,4.64469769e-05,9.06951836e-05
-3.35,8.69323186e-07,6.83121385e-06,1.48642567e-05,2.6170295e-05,4.48442995e-05,8.52784259e-05
-3.4,8.70304021e-07,6.7789662e-06,1.46678387e-05,2.56352653e-05,4.33756953e-05,8.0463726e-05
-3.45,8.71319619e-07,6.72863831e-06,1.44802285e-05,2.51314202e-05,4.20254486e-05,7.61784119e-05
-3.5,8.72368552e-07,6.68013182e-06,1.43008574e-05,2.4656143e-05,4.07801373e-05,7.2354464e-05
-3.55,8.73449471e-07,6.63335501e-06,1.41292047e-05,2.42071001e-05,3.96282439e-05,6.89309735e-05
-3.6,8.74561104e-07,6.58822222e-06,1.39647925e-05,2.37822043e-05,3.85598406e-05,6.58547585e-05
-3.65,8.75702254e-07,6.54465335e-06,1.38071814e-05,2.33795828e-05,3.7566331e-05,6.30800381e-05
-3.7,8.76871786e-07,6.50257348e-06,1.3655967e-05,2.29975509e-05,3.66402395e-05,6.05676936e-05
-3.75,8.78068631e-07,6.4619124e-06,1.35107759e-05,2.26345887e-05,3.57750384e-05,5.82844048e-05
-3.8,8.79291779e-07,6.42260428e-06,1.33712636e-05,2.22893217e-05,3.49650048e-05,5.62018031e-05
-3.85,8.80540275e-07,6.38458736e-06,1.32371111e-05,2.19605041e-05,3.4205102e-05,5.42957053e-05
-3.9,8.81813216e-07,6.34780361e-06,1.31080228e-05,2.16470036e-05,3.34908817e-05,5.25454465e-05
-3.95,8.8310975e-07,6.31219849e-06,1.29837244e-05,2.13477895e-05,3.28184011e-05,5.09333146e-05
-4.0,8.8442907e-07,6.27772068e-06,1.28639614e-05,2.10619207e-05,3.21841542e-05,4.94440748e-05
-4.05,8.85770412e-07,6.24432186e-06,1.27484965e-05,2.07885372e-05,3.15850136e-05,4.80645753e-05
-4.1,8.87133056e-07,6.21195651e-06,1.26371092e-05,2.05268509e-05,3.10181809e-05,4.6783419e-05
-4.15,8.88516319e-07,6.18058172e-06,1.25295934e-05,2.02761383e-05,3.04811454e-05,4.55906917e-05
-4.2,8.89919555e-07,6.15015698e-06,1.24257571e-05,2.00357346e-05,2.99716479e-05,4.4477737e-05
-4.25,8.91342154e-07,6.12064407e-06,1.23254207e-05,1.9805027e-05,2.94876507e-05,4.34369685e-05
-4.3,8.92783538e-07,6.09200687e-06,1.22284161e-05,1.95834505e-05,2.90273107e-05,4.24617139e-05
-4.35,8.94243161e-07,6.06421127e-06,1.2134586e-05,1.93704831e-05,2.85889575e-05,4.15460843e-05
-4.4,8.95720506e-07,6.03722498e-06,1.20437829e-05,1.91656416e-05,2.81710733e-05,4.06848653e-05
-4.45,8.97215084e-07,6.01101746e-06,1.19558685e-05,1.89684785e-05,2.77722761e-05,3.98734244e-05
-4.5,8.98726433e-07,5.98555981e-06,1.18707128e-05,1.87785781e-05,2.7391305e-05,3.91076336e-05
-4.55,9.00254117e-07,5.96082466e-06,1.17881937e-05,1.85955548e-05,2.70270072e-05,3.83838036e-05
-4.6,9.01797723e-07,5.93678606e-06,1.17081964e-05,1.84190492e-05,2.66783268e-05,3.76986277e-05
-4.65,9.0335686e-07,5.91341943e-06,1.16306129e-05,1.82487271e-05,2.63442946e-05,3.70491343e-05
-4.7,9.0493116e-07,5.89070147e-06,1.15553413e-05,1.80842765e-05,2.60240201e-05,3.64326456e-05
-4.75,9.06520275e-07,5.86861004e-06,1.14822857e-05,1.79254062e-05,2.57166828e-05,3.58467431e-05
-4.8,9.08123876e-07,5.84712417e-06,1.14113557e-05,1.77718442e-05,2.54215263e-05,3.52892368e-05
-4.85,9.09741652e-07,5.82622393e-06,1.13424659e-05,1.7623336e-05,2.51378517e-05,3.47581392e-05
-4.9,9.11373312e-07,5.80589039e-06,1.12755357e-05,1.74796431e-05,2.48650125e-05,3.42516427e-05
-4.95,9.13018579e-07,5.78610559e-06,1.12104889e-05,1.73405421e-05,2.46024096e-05,3.37680999e-05
-5.0,9.14677192e-07,5.76685244e-06,1.11472535e-05,1.72058236e-05,2.43494874e-05,3.33060063e-05
-5.05,9.16348907e-07,5.7481147e-06,1.10857616e-05,1.70752907e-05,2.41057296e-05,3.2863985e-05
-5.1,9.18033493e-07,5.72987692e-06,1.10259486e-05,1.69487586e-05,2.38706563e-05,3.24407742e-05
-5.15,9.19730731e-07,5.71212443e-06,1.09677537e-05,1.68260534e-05,2.36438202e-05,3.20352147e-05
-5.2,9.21440419e-07,5.69484324e-06,1.0911119e-05,1.67070116e-05,2.34248046e-05,3.16462405e-05
-5.25,9.23162363e-07,5.67802005e-06,1.085599e-05,1.65914791e-05,2.32132204e-05,3.1272869e-05
-5.3,9.24896384e-07,5.6616422e-06,1.08023148e-05,1.64793108e-05,2.3008704e-05,3.09141936e-05
-5.35,9.26642311e-07,5.64569761e-06,1.07500443e-05,1.63703697e-05,2.28109156e-05,3.05693763e-05
-5.4,9.28399985e-07,5.63017481e-06,1.06991318e-05,1.62645269e-05,2.26195369e-05,3.02376414e-05
-5.45,9.30169258e-07,5.61506283e-06,1.06495331e-05,1.61616605e-05,2.24342697e-05,2.99182698e-05
-5.5,9.3194999e-07,5.60035123e-06,1.06012064e-05,1.60616554e-05,2.22548342e-05,2.96105944e-05
-5.55,9.3374205e-07,5.58603007e-06,1.05541117e-05,1.59644028e-05,2.20809681e-05,2.93139947e-05
-5.6,9.35545317e-07,5.57208984e-06,1.05082112e-05,1.58698e-05,2.19124247e-05,2.90278938e-05
-5.65,9.37359676e-07,5.55852148e-06,1.0463469e-05,1.57777497e-05,2.17489723e-05,2.87517541e-05
-5.7,9.39185021e-07,5.54531635e-06,1.04198509e-05,1.568816e-05,2.15903927e-05,2.8485074e-05
-5.75,9.41021253e-07,5.53246617e-06,1.03773245e-05,1.56009438e-05,2.14364808e-05,2.82273856e-05
-5.8,9.4286828e-07,5.51996307e-06,1.03358588e-05,1.55160187e-05,2.12870431e-05,2.79782513e-05
-5.85,9.44726017e-07,5.50779949e-06,1.02954246e-05,1.54333067e-05,2.11418975e-05,2.77372618e-05
-5.9,9.46594383e-07,5.49596824e-06,1.02559938e-05,1.53527337e-05,2.10008721e-05,2.75040338e-05
-5.95,9.48473306e-07,5.48446242e-06,1.02175399e-05,1.52742296e-05,2.08638048e-05,2.72782082e-05
-6.0,9.50362718e-07,5.47327543e-06,1.01800375e-05,1.5197728e-05,2.07305425e-05,2.70594481e-05
-6.05,9.52262555e-07,5.46240096e-06,1.01434626e-05,1.51231657e-05,2.06009406e-05,2.68474371e-05
-6.1,9.54172761e-07,5.45183297e-06,1.01077922e-05,1.50504829e-05,2.04748626e-05,2.66418781e-05
-6.15,9.56093282e-07,5.44156567e-06,1.00730043e-05,1.49796229e-05,2.03521793e-05,2.64424918e-05
-6.2,9.5802407e-07,5.4315935e-06,1.00390781e-05,1.49105318e-05,2.02327686e-05,2.62490153e-05
-6.25,9.5996508e-07,5.42191114e-06,1.00059937e-05,1.48431582e-05,2.01165151e-05,2.60612013e-05
-6.3,9.61916272e-07,5.41251349e-06,9.97373213e-06,1.47774537e-05,2.00033093e-05,2.58788166e-05
-6.35,9.63877609e-07,5.40339564e-06,9.94227518e-06,1.47133721e-05,1.98930478e-05,2.57016417e-05
-6.4,9.65849058e-07,5.39455288e-06,9.91160559e-06,1.46508693e-05,1.97856327e-05,2.55294694e-05
-6.45,9.6783059e-07,5.3859807e-06,9.8817068e-06,1.45899037e-05,1.9680971e-05,2.53621043e-05
-6.5,9.69822177e-07,5.37767474e-06,9.85256303e-06,1.45304355e-05,1.95789748e-05,2.5199362e-05
-6.55,9.71823795e-07,5.3696308e-06,9.82415915e-06,1.4472427e-05,1.94795607e-05,2.50410683e-05
-6.6,9.73835425e-07,5.36184488e-06,9.79648072e-06,1.44158422e-05,1.93826496e-05,2.48870586e-05
