vds,vb1,vb2,vb3,vb4,vb5,vb6
0.0,1.0399888e-05,6.0395669e-05,9.76327343e-05,0.000126948327,0.000150879431,0.00017096217
-0.05,7.47817128e-06,5.68094792e-05,9.41185456e-05,0.000123570398,0.000147649171,0.000167876051
-0.1,4.69995844e-06,5.32782327e-05,9.0650858e-05,0.000120232158,0.000144453153,0.000164819789
-0.15,2.32756938e-06,4.98009494e-05,8.72288693e-05,0.000116932992,0.000141290895,0.000161793001
-0.2,9.37669869e-07,4.63767282e-05,8.3851798e-05,0.000113672298,0.000138161928,0.000158795309
-0.25,4.77421929e-07,4.30047739e-05,8.05188831e-05,0.000110449485,0.000135065786,0.000155826343
-0.3,3.479571e-07,3.96844404e-05,7.72293844e-05,0.000107263974,0.000132002014,0.000152885738
-0.35,3.0068273e-07,3.64153059e-05,7.39825835e-05,0.000104115198,0.000128970165,0.000149973135
-0.4,2.76972479e-07,3.31973043e-05,7.0777785e-05,0.000101002602,0.000125969799,0.00014708818
-0.45,2.61971363e-07,3.00309637e-05,6.76143185e-05,9.7925643e-05,0.000123000484,0.000144230527
-0.5,2.51032622e-07,2.69178557e-05,6.44915413e-05,9.48837877e-05,0.000120061795,0.000141399831
-0.55,2.42377732e-07,2.3861472e-05,6.1408842e-05,9.18765163e-05,0.000117153316,0.000138595755
-0.6,2.35197415e-07,2.08689907e-05,5.83656467e-05,8.89033202e-05,0.000114274637,0.000135817968
-0.65,2.29066063e-07,1.79548974e-05,5.53614269e-05,8.59637031e-05,0.000111425355,0.000133066142
-0.7,2.23731799e-07,1.51482604e-05,5.23957116e-05,8.30571815e-05,0.000108605076,0.000130339957
-0.75,2.19031003e-07,1.25057322e-05,4.94681058e-05,8.01832846e-05,0.000105813412,0.000127639094
-0.8,2.14849513e-07,1.01267599e-05,4.65783177e-05,7.73415556e-05,0.000103049984,0.000124963243
-0.85,2.11103285e-07,8.14511004e-06,4.37262017e-05,7.45315527e-05,0.000100314418,0.000122312096
-0.9,2.07727902e-07,6.6561431e-06,4.09118265e-05,7.17528497e-05,9.76063503e-05,0.000119685354
-0.95,2.0467248e-07,5.62989734e-06,3.81355842e-05,6.90050384e-05,9.49254224e-05,0.000117082718
-1.0,2.01895883e-07,4.9389934e-06,3.53983717e-05,6.62877308e-05,9.2271285e-05,0.000114503897
-1.05,1.99364254e-07,4.45590538e-06,3.27018955e-05,6.36005622e-05,8.96435962e-05,0.000111948606
-1.1,1.97049324e-07,4.09664788e-06,3.00491954e-05,6.09431956e-05,8.70420225e-05,0.000109416562
-1.15,1.94927215e-07,3.81404851e-06,2.74455501e-05,5.83153281e-05,8.44662386e-05,0.00010690749
-1.2,1.92977563e-07,3.58223423e-06,2.49000348e-05,5.57166997e-05,8.19159278e-05,0.000104421118
-1.25,1.91182856e-07,3.38640747e-06,2.24280847e-05,5.31471056e-05,7.9390783e-05,0.00010195718
-1.3,1.8952793e-07,3.217529e-06,2.00552448e-05,5.06064145e-05,7.68905066e-05,9.95154142e-05
-1.35,1.87999571e-07,3.06969166e-06,1.78210813e-05,4.80945954e-05,7.44148116e-05,9.7095566e-05
-1.4,1.86586202e-07,2.93879968e-06,1.57790014e-05,4.56117568e-05,7.19634228e-05,9.46973843e-05
-1.45,1.85277631e-07,2.82187307e-06,1.39844956e-05,4.31582075e-05,6.95360777e-05,9.23206237e-05
-1.5,1.84064843e-07,2.71666e-06,1.24710213e-05,4.07345481e-05,6.71325286e-05,8.99650445e-05
-1.55,1.82939834e-07,2.62140794e-06,1.12319272e-05,3.83418157e-05,6.47525446e-05,8.76304122e-05
-1.6,1.81895469e-07,2.53472114e-06,1.02275829e-05,3.59817108e-05,6.23959149e-05,8.53164982e-05
-1.65,1.80925367e-07,2.45546739e-06,9.40785223e-06,3.36569567e-05,6.00624526e-05,8.30230799e-05
-1.7,1.80023803e-07,2.38271456e-06,8.72846155e-06,3.13718665e-05,5.77520002e-05,8.07499407e-05
-1.75,1.79185624e-07,2.31568577e-06,8.15580505e-06,2.91332084e-05,5.54644369e-05,7.84968706e-05
-1.8,1.78406179e-07,2.25372682e-06,7.66569125e-06,2.69514358e-05,5.31996885e-05,7.62636663e-05
-1.85,1.77681261e-07,2.19628191e-06,7.24077205e-06,2.48421633e-05,5.0957741e-05,7.4050132e-05
-1.9,1.77007053e-07,2.14287518e-06,6.8683899e-06,2.28272463e-05,4.87386596e-05,7.18560798e-05
-1.95,1.76380082e-07,2.09309647e-06,6.53908886e-06,2.09339753e-05,4.65426157e-05,6.96813301e-05
-2.0,1.75797186e-07,2.04659005e-06,6.24563781e-06,1.91906453e-05,4.43699242e-05,6.75257131e-05
-2.05,1.75255477e-07,2.0030457e-06,5.98239091e-06,1.76188945e-05,4.22210989e-05,6.5389069e-05
-2.1,1.7475231e-07,1.96219159e-06,5.74486084e-06,1.62270584e-05,4.00969332e-05,6.32712493e-05
-2.15,1.74285263e-07,1.92378838e-06,5.52942665e-06,1.50091442e-05,3.79986203e-05,6.1172118e-05
-2.2,1.73852108e-07,1.88762445e-06,5.33312849e-06,1.39491709e-05,3.59279394e-05,5.90915524e-05
-2.25,1.73450797e-07,1.853512e-06,5.15351978e-06,1.30269117e-05,3.38875453e-05,5.70294442e-05
-2.3,1.73079442e-07,1.82128373e-06,4.98855837e-06,1.2222061e-05,3.18814277e-05,5.49856998e-05
-2.35,1.727363e-07,1.7907901e-06,4.83652501e-06,1.1516316e-05,2.99156204e-05,5.29602394e-05
-2.4,1.7241976e-07,1.76189702e-06,4.69596107e-06,1.08940363e-05,2.79991911e-05,5.09529942e-05
-2.45,1.7212833e-07,1.7344839e-06,4.56562051e-06,1.03421952e-05,2.61452874e-05,4.89639006e-05
-2.5,1.71860625e-07,1.70844198e-06,4.44443211e-06,9.85005946e-06,2.43714529e-05,4.69928888e-05
-2.55,1.71615362e-07,1.68367292e-06,4.33146969e-06,9.40880947e-06,2.26979962e-05,4.5039863e-05
-2.6,1.71391345e-07,1.66008755e-06,4.22592821e-06,9.01118611e-06,2.11439853e-05,4.31046747e-05
-2.65,1.71187463e-07,1.63760485e-06,4.12710451e-06,8.6511905e-06,1.97225382e-05,4.11870889e-05
-2.7,1.7100268e-07,1.61615102e-06,4.03438163e-06,8.32383919e-06,1.84381358e-05,3.92867664e-05
-2.75,1.70836029e-07,1.5956587e-06,3.94721594e-06,8.02496827e-06,1.72870829e-05,3.74033173e-05
-2.8,1.70686607e-07,1.57606629e-06,3.86512655e-06,7.75107773e-06,1.62600036e-05,3.55365559e-05
-2.85,1.70553569e-07,1.55731731e-06,3.78768649e-06,7.49920814e-06,1.53446546e-05,3.36871849e-05
-2.9,1.70436125e-07,1.53935993e-06,3.71451535e-06,7.26684262e-06,1.45280663e-05,3.18581627e-05
-2.95,1.70333534e-07,1.52214647e-06,3.6452731e-06,7.05182874e-06,1.37978234e-05,3.00567171e-05
-3.0,1.70245101e-07,1.50563299e-06,3.57965485e-06,6.85231592e-06,1.31426804e-05,2.82961606e-05
-3.05,1.70170176e-07,1.48977893e-06,3.51738644e-06,6.66670509e-06,1.25527626e-05,2.65958265e-05
-3.1,1.70108144e-07,1.47454683e-06,3.45822065e-06,6.49360787e-06,1.20195465e-05,2.49779431e-05
-3.15,1.7005843e-07,1.45990198e-06,3.40193397e-06,6.33181333e-06,1.15357403e-05,2.34624895e-05
-3.2,1.70020492e-07,1.4458122e-06,3.34832384e-06,6.18026077e-06,1.10951295e-05,2.20628323e-05
-3.25,1.69993821e-07,1.43224765e-06,3.29720622e-06,6.03801734e-06,1.06924209e-05,2.07841507e-05
-3.3,1.69977934e-07,1.41918055e-06,3.24841357e-06,5.90425946e-06,1.03231006e-05,1.96244821e-05
-3.35,1.69972379e-07,1.40658506e-06,3.20179298e-06,5.77825739e-06,9.98330882e-06,1.85769923e-05
-3.4,1.69976728e-07,1.39443709e-06,3.15720467e-06,5.65936231e-06,9.669735e-06,1.76322358e-05
-3.45,1.69990577e-07,1.38271417e-06,3.11452056e-06,5.54699546e-06,9.37952898e-06,1.67798459e-05
-3.5,1.70013545e-07,1.37139531e-06,3.0736231e-06,5.44063898e-06,9.11022755e-06,1.60095899e-05
-3.55,1.7004527e-07,1.36046087e-06,3.0344042e-06,5.33982814e-06,8.85969354e-06,1.5311934e-05
-3.6,1.70085412e-07,1.34989247e-06,2.99676431e-06,5.24414475e-06,8.62606537e-06,1.46782859e-05
-3.65,1.70133648e-07,1.3396729e-06,2.96061159e-06,5.15321144e-06,8.40771528e-06,1.41010518e-05
-3.7,1.70189673e-07,1.32978599e-06,2.92586116e-06,5.06668689e-06,8.20321463e-06,1.35735951e-05
-3.75,1.70253198e-07,1.32021657e-06,2.89243447e-06,4.98426157e-06,8.01130494e-06,1.30901503e-05
-3.8,1.70323948e-07,1.3109504e-06,2.86025874e-06,4.90565418e-06,7.83087379e-06,1.26457214e-05
-3.85,1.70401665e-07,1.30197406e-06,2.8292664e-06,4.83060851e-06,7.66093455e-06,1.22359817e-05
-3.9,1.70486103e-07,1.29327494e-06,2.79939467e-06,4.75889068e-06,7.50060934e-06,1.18571803e-05
-3.95,1.70577027e-07,1.28484115e-06,2.77058513e-06,4.6902868e-06,7.34911464e-06,1.15060596e-05
-4.0,1.70674217e-07,1.27666147e-06,2.74278334e-06,4.62460087e-06,7.20574907e-06,1.11797831e-05
-4.05,1.70777464e-07,1.26872534e-06,2.71593853e-06,4.56165295e-06,7.06988301e-06,1.08758745e-05
-4.1,1.70886567e-07,1.26102278e-06,2.69000329e-06,4.50127757e-06,6.94094979e-06,1.05921651e-05
-4.15,1.71001339e-07,1.25354435e-06,2.66493329e-06,4.44332227e-06,6.81843798e-06,1.03267499e-05
-4.2,1.71121598e-07,1.24628114e-06,2.64068703e-06,4.3876464e-06,6.70188497e-06,1.00779501e-05
-4.25,1.71247177e-07,1.23922472e-06,2.61722567e-06,4.33411997e-06,6.59087127e-06,9.84428186e-06
-4.3,1.71377911e-07,1.2323671e-06,2.59451275e-06,4.28262265e-06,6.48501561e-06,9.62442935e-06
-4.35,1.71513648e-07,1.22570072e-06,2.57251407e-06,4.23304293e-06,6.38397079e-06,9.4172224e-06
-4.4,1.71654243e-07,1.21921844e-06,2.5511975e-06,4.18527732e-06,6.28741988e-06,9.22161729e-06
-4.45,1.71799556e-07,1.21291346e-06,2.53053282e-06,4.1392296e-06,6.1950731e-06,9.03668045e-06
-4.5,1.71949455e-07,1.20677934e-06,2.51049161e-06,4.09481028e-06,6.10666493e-06,8.86157459e-06
-4.55,1.72103816e-07,1.20080997e-06,2.49104708e-06,4.05193593e-06,6.02195165e-06,8.69554675e-06
-4.6,1.72262521e-07,1.19499956e-06,2.47217402e-06,4.01052877e-06,5.94070915e-06,8.53791814e-06
-4.65,1.72425454e-07,1.18934261e-06,2.45384861e-06,3.97051613e-06,5.86273105e-06,8.38807531e-06
-4.7,1.72592511e-07,1.18383386e-06,2.43604841e-06,3.93183009e-06,5.78782692e-06,8.24546259e-06
-4.75,1.72763588e-07,1.17846837e-06,2.41875221e-06,3.89440709e-06,5.71582083e-06,8.10957551e-06
-4.8,1.7293859e-07,1.17324139e-06,2.40193995e-06,3.85818758e-06,5.64654998e-06,7.97995507e-06
-4.85,1.73117423e-07,1.16814842e-06,2.3855927e-06,3.82311572e-06,5.57986349e-06,7.85618282e-06
-4.9,1.733e-07,1.1631852e-06,2.36969253e-06,3.78913909e-06,5.51562137e-06,7.73787648e-06
-4.95,1.73486239e-07,1.15834764e-06,2.35422247e-06,3.75620849e-06,5.45369355e-06,7.62468616e-06
-5.0,1.7367606e-07,1.15363187e-06,2.33916644e-06,3.72427762e-06,5.39395898e-06,7.51629104e-06
-5.05,1.73869389e-07,1.14903419e-06,2.32450922e-06,3.69330293e-06,5.33630495e-06,7.41239639e-06
-5.1,1.74066154e-07,1.14455108e-06,2.31023638e-06,3.66324343e-06,5.2806263e-06,7.31273104e-06
-5.15,1.74266288e-07,1.14017918e-06,2.29633421e-06,3.63406048e-06,5.22682487e-06,7.21704506e-06
-5.2,1.74469725e-07,1.13591529e-06,2.28278974e-06,3.60571763e-06,5.17480892e-06,7.12510773e-06
-5.25,1.74676406e-07,1.13175637e-06,2.26959063e-06,3.57818052e-06,5.1244926e-06,7.03670575e-06
-5.3,1.74886272e-07,1.12769949e-06,2.25672517e-06,3.55141668e-06,5.07579551e-06,6.95164165e-06
-5.35,1.75099269e-07,1.12374188e-06,2.24418223e-06,3.52539544e-06,5.02864227e-06,6.86973233e-06
-5.4,1.75315343e-07,1.11988088e-06,2.23195125e-06,3.50008781e-06,4.98296216e-06,6.7908078e-06
-5.45,1.75534445e-07,1.11611396e-06,2.22002217e-06,3.47546638e-06,4.93868878e-06,6.71471005e-06
-5.5,1.75756528e-07,1.11243869e-06,2.20838544e-06,3.4515052e-06,4.89575968e-06,6.641292e-06
-5.55,1.75981548e-07,1.10885277e-06,2.19703195e-06,3.4281797e-06,4.85411614e-06,6.57041659e-06
-5.6,1.76209461e-07,1.10535398e-06,2.18595306e-06,3.40546661e-06,4.81370289e-06,6.50195596e-06
-5.65,1.76440228e-07,1.1019402e-06,2.17514053e-06,3.38334389e-06,4.77446785e-06,6.43579067e-06
-5.7,1.7667381e-07,1.09860941e-06,2.1645865e-06,3.36179061e-06,4.73636192e-06,6.37180907e-06
-5.75,1.7691017e-07,1.09535967e-06,2.1542835e-06,3.34078696e-06,4.69933879e-06,6.30990665e-06
-5.8,1.77149275e-07,1.09218912e-06,2.14422441e-06,3.32031411e-06,4.66335476e-06,6.24998552e-06
-5.85,1.77391091e-07,1.089096e-06,2.13440243e-06,3.30035421e-06,4.62836853e-06,6.19195386e-06
-5.9,1.77635588e-07,1.08607858e-06,2.12481109e-06,3.28089029e-06,4.59434109e-06,6.13572552e-06
-5.95,1.77882735e-07,1.08313526e-06,2.11544421e-06,3.26190626e-06,4.56123555e-06,6.08121957e-06
-6.0,1.78132506e-07,1.08026445e-06,2.10629589e-06,3.24338678e-06,4.52901702e-06,6.02835992e-06
-6.05,1.78384872e-07,1.07746467e-06,2.09736051e-06,3.22531733e-06,4.49765247e-06,5.977075e-06
-6.1,1.7863981e-07,1.07473446e-06,2.08863269e-06,3.20768405e-06,4.46711063e-06,5.92729741e-06
-6.15,1.78897295e-07,1.07207244e-06,2.0801073e-06,3.19047378e-06,4.43736187e-06,5.87896366e-06
-6.2,1.79157305e-07,1.0694773e-06,2.07177943e-06,3.17367401e-06,4.40837811e-06,5.83201389e-06
-6.25,1.79419817e-07,1.06694775e-06,2.0636444e-06,3.1572728e-06,4.38013275e-06,5.78639163e-06
-6.3,1.79684813e-07,1.06448256e-06,2.0556977e-06,3.14125881e-06,4.35260054e-06,5.74204356e-06
-6.35,1.79952271e-07,1.06208055e-06,2.04793507e-06,3.12562124e-06,4.32575753e-06,5.69891935e-06
-6.4,1.80222174e-07,1.05974059e-06,2.04035239e-06,3.11034977e-06,4.29958098e-06,5.65697141e-06
-6.45,1.80494504e-07,1.05746158e-06,2.03294572e-06,3.09543459e-06,4.27404931e-06,5.61615476e-06
-6.5,1.80769245e-07,1.05524248e-06,2.02571131e-06,3.08086636e-06,4.24914202e-06,5.57642686e-06
-6.55,1.81046381e-07,1.05308226e-06,2.01864555e-06,3.06663613e-06,4.22483964e-06,5.53774743e-06
-6.6,1.81325897e-07,1.05097994e-06,2.01174496e-06,3.0527354e-06,4.20112366e-06,5.50007835e-06
