vds,vb1,vb2,vb3,vb4,vb5,vb6
0.0,5.74435815e-07,5.09693009e-06,8.94906794e-06,1.22238964e-05,1.50401623e-05,1.74863887e-05
-0.05,3.27661061e-07,4.77881962e-06,8.65108637e-06,1.19471595e-05,1.47829657e-05,1.72467929e-05
-0.1,1.21757669e-07,4.4611273e-06,8.35343046e-06,1.16707013e-05,1.45260115e-05,1.700741e-05
-0.15,2.76417705e-08,4.14387087e-06,8.05610104e-06,1.13945216e-05,1.42692997e-05,1.67682399e-05
-0.2,7.36651453e-09,3.82707692e-06,7.75909918e-06,1.11186205e-05,1.401283e-05,1.65292823e-05
-0.25,3.01133464e-09,3.51078633e-06,7.46242633e-06,1.0842998e-05,1.37566023e-05,1.62905371e-05
-0.3,1.70708862e-09,3.19506352e-06,7.1660844e-06,1.0567654e-05,1.35006163e-05,1.6052004e-05
-0.35,1.19015632e-09,2.88001336e-06,6.87007585e-06,1.02925887e-05,1.3244872e-05,1.58136829e-05
-0.4,9.38857819e-10,2.5658125e-06,6.57440395e-06,1.00178022e-05,1.29893691e-05,1.55755736e-05
-0.45,7.96852256e-10,2.25277076e-06,6.27907293e-06,9.74329491e-06,1.27341077e-05,1.5337676e-05
-0.5,7.07011171e-10,1.94145526e-06,5.98408838e-06,9.46906714e-06,1.24790875e-05,1.50999898e-05
-0.55,6.45097438e-10,1.63295164e-06,5.68945767e-06,9.19511939e-06,1.22243085e-05,1.48625149e-05
-0.6,5.99564929e-10,1.3294237e-06,5.39519062e-06,8.92145232e-06,1.19697706e-05,1.46252511e-05
-0.65,5.64378933e-10,1.03528382e-06,5.10130045e-06,8.64806675e-06,1.17154739e-05,1.43881983e-05
-0.7,5.36136113e-10,7.59317187e-07,4.80780512e-06,8.37496375e-06,1.14614184e-05,1.41513564e-05
-0.75,5.12791163e-10,5.16910538e-07,4.51472935e-06,8.10214464e-06,1.12076041e-05,1.39147253e-05
-0.8,4.9304692e-10,3.27283379e-07,4.2221077e-06,7.82961106e-06,1.09540311e-05,1.36783048e-05
-0.85,4.76041964e-10,2.00308439e-07,3.92998923e-06,7.5573651e-06,1.07006995e-05,1.34420948e-05
-0.9,4.61181156e-10,1.26438259e-07,3.63844488e-06,7.28540933e-06,1.04476097e-05,1.32060953e-05
-0.95,4.4803904e-10,8.63956327e-08,3.34757924e-06,7.01374698e-06,1.01947618e-05,1.29703061e-05
-1.0,4.36302341e-10,6.45887349e-08,3.05754985e-06,6.74238208e-06,9.94215631e-06,1.27347273e-05
-1.05,4.25734397e-10,5.20914609e-08,2.76859958e-06,6.47131973e-06,9.68979361e-06,1.24993588e-05
-1.1,4.16152388e-10,4.44195077e-08,2.48111171e-06,6.20056635e-06,9.43767431e-06,1.22642006e-05
-1.15,4.07412322e-10,3.93699119e-08,2.19570571e-06,5.93013012e-06,9.18579911e-06,1.20292528e-05
-1.2,3.99398845e-10,3.58307703e-08,1.91340419e-06,5.66002149e-06,8.93416889e-06,1.17945152e-05
-1.25,3.9201816e-10,3.32142242e-08,1.63592078e-06,5.39025397e-06,8.6827847e-06,1.15599882e-05
-1.3,3.85192995e-10,3.11929605e-08,1.36613131e-06,5.12084513e-06,8.43164784e-06,1.13256717e-05
-1.35,3.78858948e-10,2.95751834e-08,1.10874486e-06,4.85181809e-06,8.18075984e-06,1.10915659e-05
-1.4,3.72961797e-10,2.82429912e-08,8.70938849e-07,4.58320356e-06,7.93012259e-06,1.0857671e-05
-1.45,3.67455467e-10,2.71206578e-08,6.62098996e-07,4.31504283e-06,7.67973836e-06,1.06239873e-05
-1.5,3.62300485e-10,2.61575822e-08,4.9131283e-07,4.04739217e-06,7.42960991e-06,1.03905152e-05
-1.55,3.57462789e-10,2.53187319e-08,3.62828976e-07,3.78032929e-06,7.17974057e-06,1.01572549e-05
-1.6,3.52912789e-10,2.45790755e-08,2.73282217e-07,3.51396312e-06,6.93013444e-06,9.924207e-06
-1.65,3.48624625e-10,2.39202199e-08,2.13903511e-07,3.24844872e-06,6.68079649e-06,9.69137205e-06
-1.7,3.44575573e-10,2.33283115e-08,1.75128622e-07,2.98401046e-06,6.43173285e-06,9.45875072e-06
-1.75,3.40745568e-10,2.27926852e-08,1.49455774e-07,2.72097818e-06,6.1829511e-06,9.22634381e-06
-1.8,3.37116807e-10,2.23049711e-08,1.31906019e-07,2.45984432e-06,5.93446062e-06,8.99415228e-06
-1.85,3.33673433e-10,2.18584879e-08,1.19422086e-07,2.20135373e-06,5.68627315e-06,8.76217726e-06
-1.9,3.30401262e-10,2.14478214e-08,1.10173616e-07,1.94664282e-06,5.43840347e-06,8.53042009e-06
-1.95,3.27287564e-10,2.10685259e-08,1.03059995e-07,1.69744601e-06,5.19087031e-06,8.29888233e-06
-2.0,3.24320877e-10,2.07169074e-08,9.74059322e-08,1.45637357e-06,4.94369761e-06,8.06756586e-06
-2.05,3.21490844e-10,2.03898644e-08,9.27854064e-08,1.22720894e-06,4.69691627e-06,7.83647287e-06
-2.1,3.18788084e-10,2.00847683e-08,8.89212392e-08,1.0150368e-06,4.45056652e-06,7.60560599e-06
-2.15,3.16204073e-10,1.97993723e-08,8.56273718e-08,8.25821261e-07,4.2047013e-06,7.37496832e-06
-2.2,3.13731048e-10,1.95317421e-08,8.2775084e-08,6.65057873e-07,3.95939103e-06,7.14456358e-06
-2.25,3.11361923e-10,1.92802004e-08,8.02727629e-08,5.35757806e-07,3.71473046e-06,6.91439619e-06
-2.3,3.09090212e-10,1.9043284e-08,7.80534779e-08,4.37042922e-07,3.4708486e-06,6.68447148e-06
-2.35,3.06909969e-10,1.88197096e-08,7.60671508e-08,3.64571906e-07,3.22792322e-06,6.45479586e-06
-2.4,3.04815728e-10,1.86083454e-08,7.42754977e-08,3.12414504e-07,2.98620225e-06,6.2253771e-06
-2.45,3.02802459e-10,1.84081889e-08,7.26486795e-08,2.74892313e-07,2.74603541e-06,5.99622465e-06
-2.5,3.00865521e-10,1.82183482e-08,7.1163034e-08,2.47500732e-07,2.50792087e-06,5.76735008e-06
-2.55,2.99000628e-10,1.80380265e-08,6.97995056e-08,2.27024576e-07,2.27257334e-06,5.53876762e-06
-2.6,2.9720381e-10,1.78665095e-08,6.85425356e-08,2.1129065e-07,2.04102061e-06,5.31049492e-06
-2.65,2.95471391e-10,1.77031547e-08,6.7379264e-08,1.98861678e-07,1.81473273e-06,5.08255397e-06
-2.7,2.93799956e-10,1.75473822e-08,6.62989444e-08,1.88788359e-07,1.59577558e-06,4.85497245e-06
-2.75,2.92186332e-10,1.73986671e-08,6.52925081e-08,1.804368e-07,1.3869486e-06,4.62778536e-06
-2.8,2.90627562e-10,1.72565328e-08,6.43522349e-08,1.73376097e-07,1.19180737e-06,4.40103746e-06
-2.85,2.89120893e-10,1.71205459e-08,6.34714999e-08,1.67307005e-07,1.0144062e-06,4.17478637e-06
-2.9,2.87663753e-10,1.69903108e-08,6.26445781e-08,1.62016935e-07,8.58612574e-07,3.94910699e-06
-2.95,2.86253742e-10,1.68654658e-08,6.18664897e-08,1.57351392e-07,7.27072571e-07,3.72409765e-06
-3.0,2.84888611e-10,1.67456795e-08,6.11328775e-08,1.53195613e-07,6.20294037e-07,3.49988857e-06
-3.05,2.83566256e-10,1.66306474e-08,6.04399093e-08,1.49462577e-07,5.36449146e-07,3.27665391e-06
-3.1,2.82284704e-10,1.65200895e-08,5.97841972e-08,1.46085026e-07,4.72047694e-07,3.05462875e-06
-3.15,2.81042103e-10,1.64137477e-08,5.91627332e-08,1.43010066e-07,4.23008575e-07,2.83413297e-06
-3.2,2.79836713e-10,1.63113836e-08,5.85728357e-08,1.40195433e-07,3.85531787e-07,2.61560484e-06
-3.25,2.78666898e-10,1.62127766e-08,5.80121041e-08,1.37606872e-07,3.56522499e-07,2.39964735e-06
-3.3,2.77531121e-10,1.61177225e-08,5.74783826e-08,1.35216258e-07,3.33654079e-07,2.18709022e-06
-3.35,2.7642793e-10,1.60260318e-08,5.69697283e-08,1.33000234e-07,3.15253509e-07,1.97906821e-06
-3.4,2.75355959e-10,1.59375282e-08,5.64843852e-08,1.30939198e-07,3.00142113e-07,1.77710935e-06
-3.45,2.74313919e-10,1.58520479e-08,5.6020761e-08,1.29016544e-07,2.87493185e-07,1.58321196e-06
-3.5,2.73300592e-10,1.57694382e-08,5.55774089e-08,1.27218088e-07,2.76723495e-07,1.39986364e-06
-3.55,2.72314828e-10,1.56895565e-08,5.515301e-08,1.25531622e-07,2.67416538e-07,1.22992721e-06
-3.6,2.71355539e-10,1.56122698e-08,5.47463598e-08,1.23946564e-07,2.5927014e-07,1.0763156e-06
-3.65,2.70421697e-10,1.55374537e-08,5.43563556e-08,1.22453689e-07,2.52061192e-07,9.41447667e-07
-3.7,2.69512328e-10,1.54649915e-08,5.39819856e-08,1.21044903e-07,2.45621958e-07,8.26633676e-07
-3.75,2.68626509e-10,1.53947742e-08,5.36223198e-08,1.19713074e-07,2.39824065e-07,7.3167966e-07
-3.8,2.67763364e-10,1.53266992e-08,5.32765016e-08,1.18451883e-07,2.34567582e-07,6.54945245e-07
-3.85,2.66922065e-10,1.52606703e-08,5.29437406e-08,1.17255709e-07,2.29773463e-07,5.93823546e-07
-3.9,2.66101823e-10,1.51965971e-08,5.26233063e-08,1.16119531e-07,2.25378256e-07,5.45371721e-07
-3.95,2.65301892e-10,1.51343945e-08,5.23145221e-08,1.1503885e-07,2.21330331e-07,5.06815597e-07
-4.0,2.6452156e-10,1.50739824e-08,5.20167612e-08,1.14009616e-07,2.17587161e-07,4.75816301e-07
-4.05,2.63760153e-10,1.50152853e-08,5.17294409e-08,1.13028175e-07,2.14113322e-07,4.50535487e-07
-4.1,2.63017028e-10,1.4958232e-08,5.14520199e-08,1.1209122e-07,2.10879012e-07,4.29587216e-07
-4.15,2.62291574e-10,1.49027552e-08,5.11839936e-08,1.11195749e-07,2.07858926e-07,4.11949025e-07
-4.2,2.61583209e-10,1.48487914e-08,5.09248919e-08,1.10339029e-07,2.05031403e-07,3.96872407e-07
-4.25,2.6089138e-10,1.47962807e-08,5.06742758e-08,1.09518568e-07,2.02377762e-07,3.83808447e-07
-4.3,2.60215559e-10,1.47451663e-08,5.04317349e-08,1.08732087e-07,1.99881785e-07,3.72351381e-07
-4.35,2.59555241e-10,1.46953944e-08,5.01968853e-08,1.07977496e-07,1.97529302e-07,3.62197704e-07
-4.4,2.58909947e-10,1.46469141e-08,4.99693672e-08,1.07252877e-07,1.9530787e-07,3.53117216e-07
-4.45,2.5827922e-10,1.45996773e-08,4.97488434e-08,1.06556464e-07,1.93206501e-07,3.44932691e-07
-4.5,2.57662621e-10,1.45536381e-08,4.95349972e-08,1.05886632e-07,1.91215448e-07,3.37505628e-07
-4.55,2.57059733e-10,1.45087531e-08,4.93275313e-08,1.05241876e-07,1.89326031e-07,3.30726191e-07
-4.6,2.56470157e-10,1.44649813e-08,4.91261657e-08,1.04620806e-07,1.87530484e-07,3.24506058e-07
-4.65,2.55893512e-10,1.44222833e-08,4.89306372e-08,1.04022135e-07,1.8582184e-07,3.1877328e-07
-4.7,2.55329432e-10,1.43806221e-08,4.87406977e-08,1.03444668e-07,1.84193821e-07,3.13468539e-07
-4.75,2.5477757e-10,1.43399623e-08,4.85561133e-08,1.02887293e-07,1.82640757e-07,3.08542392e-07
-4.8,2.54237591e-10,1.43002702e-08,4.83766633e-08,1.02348977e-07,1.81157511e-07,3.03953213e-07
-4.85,2.53709175e-10,1.42615139e-08,4.82021394e-08,1.01828758e-07,1.79739413e-07,2.99665638e-07
-4.9,2.53192016e-10,1.42236628e-08,4.80323446e-08,1.01325736e-07,1.78382212e-07,2.95649378e-07
-4.95,2.52685821e-10,1.41866879e-08,4.78670926e-08,1.00839072e-07,1.77082024e-07,2.91878292e-07
-5.0,2.52190307e-10,1.41505615e-08,4.77062074e-08,1.00367981e-07,1.75835295e-07,2.88329672e-07
-5.05,2.51705206e-10,1.41152572e-08,4.75495221e-08,9.99117287e-08,1.74638766e-07,2.84983665e-07
-5.1,2.51230257e-10,1.40807498e-08,4.73968785e-08,9.94696254e-08,1.7348944e-07,2.81822824e-07
-5.15,2.50765213e-10,1.40470153e-08,4.7248127e-08,9.90410253e-08,1.72384559e-07,2.7883173e-07
-5.2,2.50309834e-10,1.40140308e-08,4.71031253e-08,9.86253212e-08,1.71321578e-07,2.759967e-07
-5.25,2.49863892e-10,1.39817744e-08,4.69617386e-08,9.82219427e-08,1.70298145e-07,2.73305536e-07
-5.3,2.49427164e-10,1.3950225e-08,4.68238387e-08,9.7830353e-08,1.69312084e-07,2.70747321e-07
-5.35,2.4899944e-10,1.39193627e-08,4.66893041e-08,9.74500466e-08,1.68361376e-07,2.68312248e-07
-5.4,2.48580515e-10,1.38891683e-08,4.65580189e-08,9.70805471e-08,1.67444147e-07,2.65991482e-07
-5.45,2.48170193e-10,1.38596235e-08,4.64298733e-08,9.67214052e-08,1.66558656e-07,2.63777034e-07
-5.5,2.47768284e-10,1.38307107e-08,4.63047625e-08,9.63721968e-08,1.65703279e-07,2.61661659e-07
-5.55,2.47374605e-10,1.38024132e-08,4.61825868e-08,9.60325211e-08,1.64876506e-07,2.59638772e-07
-5.6,2.46988983e-10,1.37747149e-08,4.60632515e-08,9.57019997e-08,1.64076923e-07,2.5770237e-07
-5.65,2.46611245e-10,1.37476003e-08,4.59466659e-08,9.53802741e-08,1.63303212e-07,2.5584697e-07
-5.7,2.46241231e-10,1.37210546e-08,4.5832744e-08,9.50670053e-08,1.62554137e-07,2.54067549e-07
-5.75,2.4587878e-10,1.36950637e-08,4.57214035e-08,9.47618723e-08,1.61828544e-07,2.52359498e-07
-5.8,2.45523741e-10,1.36696139e-08,4.56125661e-08,9.44645707e-08,1.61125348e-07,2.5071858e-07
-5.85,2.45175967e-10,1.36446921e-08,4.55061567e-08,9.41748118e-08,1.6044353e-07,2.4914089e-07
-5.9,2.44835314e-10,1.36202859e-08,4.5402104e-08,9.3892322e-08,1.59782136e-07,2.47622824e-07
-5.95,2.44501647e-10,1.35963831e-08,4.53003397e-08,9.36168412e-08,1.59140265e-07,2.46161053e-07
-6.0,2.4417483e-10,1.35729721e-08,4.52007984e-08,9.33481226e-08,1.58517073e-07,2.44752489e-07
-6.05,2.43854735e-10,1.35500417e-08,4.51034178e-08,9.30859316e-08,1.57911762e-07,2.43394274e-07
-6.1,2.43541237e-10,1.35275813e-08,4.50081382e-08,9.28300452e-08,1.5732358e-07,2.42083747e-07
-6.15,2.43234215e-10,1.35055804e-08,4.49149024e-08,9.25802512e-08,1.56751819e-07,2.40818439e-07
-6.2,2.42933551e-10,1.34840292e-08,4.48236558e-08,9.23363476e-08,1.56195809e-07,2.39596046e-07
-6.25,2.42639132e-10,1.34629179e-08,4.4734346e-08,9.20981423e-08,1.55654917e-07,2.38414421e-07
-6.3,2.42350847e-10,1.34422374e-08,4.46469228e-08,9.18654521e-08,1.55128547e-07,2.37271558e-07
-6.35,2.42068589e-10,1.34219788e-08,4.45613381e-08,9.16381026e-08,1.54616131e-07,2.36165585e-07
-6.4,2.41792253e-10,1.34021333e-08,4.44775458e-08,9.14159273e-08,1.54117135e-07,2.35094745e-07
-6.45,2.41521738e-10,1.33826928e-08,4.43955016e-08,9.11987675e-08,1.5363105e-07,2.34057395e-07
-6.5,2.41256945e-10,1.33636491e-08,4.43151631e-08,9.09864719e-08,1.53157396e-07,2.33051995e-07
-6.55,2.40997779e-10,1.33449945e-08,4.42364895e-08,9.07788959e-08,1.52695716e-07,2.32077095e-07
-6.6,2.40744147e-10,1.33267215e-08,4.41594415e-08,9.05759015e-08,1.52245577e-07,2.31131336e-07
