vds,vb1,vb2,vb3,vb4,vb5,vb6
0.0,8.43263011e-05,0.000575223497,0.000933502895,0.00120928814,0.00142920759,0.00160927507
-0.05,5.68493276e-05,0.000540530985,0.000899951749,0.00117735926,0.00139891801,0.00158053266
-0.1,3.13695934e-05,0.000506324948,0.000866810137,0.00114577965,0.00136893008,0.00155205376
-0.15,1.24317558e-05,0.000472597724,0.000834071556,0.00111454426,0.00133923982,0.00152383518
-0.2,4.62131651e-06,0.000439342394,0.00080172966,0.00108364817,0.00130984333,0.00149587375
-0.25,2.61757026e-06,0.000406553075,0.00076977826,0.00105308651,0.00128073675,0.00146816638
-0.3,2.02494344e-06,0.000374225403,0.000738211332,0.00102285453,0.00125191631,0.00144071001
-0.35,1.77444755e-06,0.000342357363,0.000707023022,0.000992947556,0.00122337829,0.00141350161
-0.4,1.63337664e-06,0.000310950778,0.000676207659,0.000963361013,0.00119511903,0.00138653824
-0.45,1.53820771e-06,0.000280014043,0.000645759772,0.00093409041,0.00116713494,0.00135981695
-0.5,1.46689844e-06,0.000249567373,0.000615674112,0.000905131347,0.00113942247,0.00133333487
-0.55,1.41008969e-06,0.000219653229,0.000585945691,0.000876479512,0.00111197814,0.00130708916
-0.6,1.36310348e-06,0.000190357701,0.00055656983,0.000848130687,0.00108479853,0.00128107702
-0.65,1.32328071e-06,0.000161854863,0.00052754223,0.000820080746,0.00105788028,0.0012552957
-0.7,1.28895279e-06,0.00013449537,0.000498859079,0.000792325658,0.00103122008,0.00122974248
-0.75,1.25899171e-06,0.000108955919,0.000470517218,0.000764861495,0.00100481468,0.00120441469
-0.8,1.2325912e-06,8.63687451e-05,0.000442514373,0.000737684428,0.00097866088,0.00117930969
-0.85,1.20915035e-06,6.80735478e-05,0.000414849545,0.000710790744,0.00095275555,0.00115442488
-0.9,1.18820684e-06,5.47127713e-05,0.000387523605,0.000684176844,0.00092709561,0.00112975772
-0.95,1.16939609e-06,4.56196999e-05,0.000360540269,0.000657839265,0.000901678039,0.00110530569
-1.0,1.15242497e-06,3.94638431e-05,0.000333907723,0.000631774687,0.000876499875,0.00108106631
-1.05,1.137054e-06,3.51162588e-05,0.000307641373,0.000605979957,0.000851558214,0.00105703715
-1.1,1.123085e-06,3.18727526e-05,0.000281768614,0.000580452119,0.000826850212,0.00103321581
-1.15,1.11035212e-06,2.93350419e-05,0.000256337192,0.000555188451,0.000802373085,0.00100959992
-1.2,1.09871528e-06,2.72764593e-05,0.000231429785,0.000530186523,0.000778124111,0.000986187181
-1.25,1.08805517e-06,2.55614895e-05,0.000207188521,0.000505444273,0.000754100632,0.000962975299
-1.3,1.07826944e-06,2.41041216e-05,0.000183851858,0.000480960119,0.000730300055,0.000939962035
-1.35,1.0692697e-06,2.28466309e-05,0.0001617954,0.000456733125,0.000706719855,0.000917145185
-1.4,1.06097922e-06,2.17484062e-05,0.000141537103,0.000432763243,0.000683357578,0.000894522583
-1.45,1.05333099e-06,2.07797615e-05,0.000123633727,0.000409051675,0.000660210847,0.000872092101
-1.5,1.04626621e-06,1.99183204e-05,0.000108454202,0.000385601443,0.000637277363,0.000849851649
-1.55,1.03973309e-06,1.91467941e-05,9.59958966e-05,0.000362418274,0.000614554913,0.000827799174
-1.6,1.0336858e-06,1.84515519e-05,8.59278492e-05,0.000339512032,0.000592041378,0.000805932659
-1.65,1.02808361e-06,1.7821666e-05,7.77871855e-05,0.000316899057,0.00056973474,0.000784250125
-1.7,1.02289026e-06,1.72482511e-05,7.11381037e-05,0.000294606062,0.000547633089,0.000762749627
-1.75,1.01807327e-06,1.6723995e-05,6.56319634e-05,0.000272676594,0.000525734639,0.000741429256
-1.8,1.01360356e-06,1.62428166e-05,6.10075286e-05,0.000251181537,0.000504037732,0.000720287135
-1.85,1.00945491e-06,1.57996121e-05,5.70725911e-05,0.00023023486,0.00048254085,0.000699321417
-1.9,1.0056037e-06,1.53900623e-05,5.36852155e-05,0.000210013145,0.000461242623,0.000678530281
-1.95,1.00202856e-06,1.50104856e-05,5.07392572e-05,0.00019076893,0.000440141832,0.000657911928
-2.0,9.98710102e-07,1.46577229e-05,4.81540935e-05,0.000172815431,0.000419237401,0.000637464572
-2.05,9.95630706e-07,1.43290467e-05,4.58675138e-05,0.000156462156,0.000398528395,0.000617186427
-2.1,9.92774325e-07,1.40220895e-05,4.38307952e-05,0.000141920104,0.000378014037,0.000597075689
-2.15,9.90126308e-07,1.37347857e-05,4.20052524e-05,0.000129238793,0.000357693828,0.00057713051
-2.2,9.87673253e-07,1.34653246e-05,4.03597861e-05,0.000118315968,0.000337567987,0.000557348956
-2.25,9.85402878e-07,1.32121118e-05,3.88691133e-05,0.00010895675,0.000317638783,0.000537728945
-2.3,9.83303906e-07,1.29737381e-05,3.75124691e-05,0.000100935317,0.000297913987,0.000518268156
-2.35,9.81365963e-07,1.2748953e-05,3.62726408e-05,9.40347135e-05,0.000278414773,0.000498963893
-2.4,9.79579494e-07,1.25366427e-05,3.51352398e-05,8.80647587e-05,0.000259191216,0.000479812874
-2.45,9.77935679e-07,1.23358121e-05,3.40881456e-05,8.28663462e-05,0.00024034638,0.00046081093
-2.5,9.76426368e-07,1.21455694e-05,3.31210756e-05,7.8309358e-05,0.000222060652,0.000441952555
-2.55,9.75044015e-07,1.19651129e-05,3.22252495e-05,7.42883738e-05,0.000204593496,0.000423230265
-2.6,9.73781628e-07,1.17937196e-05,3.1393125e-05,7.07181366e-05,0.000188239818,0.00040463372
-2.65,9.72632715e-07,1.16307363e-05,3.06181869e-05,6.75295273e-05,0.000173251289,0.000386148635
-2.7,9.71591244e-07,1.14755709e-05,2.98947782e-05,6.46662406e-05,0.000159769731,0.000367755673
-2.75,9.70651602e-07,1.13276857e-05,2.92179631e-05,6.20821333e-05,0.000147810168,0.00034942999
-2.8,9.69808557e-07,1.11865911e-05,2.85834161e-05,5.97391409e-05,0.000137288375,0.000331143025
-2.85,9.69057233e-07,1.10518405e-05,2.79873303e-05,5.76056513e-05,0.00012806399,0.000312869545
-2.9,9.68393074e-07,1.09230254e-05,2.74263418e-05,5.56552354e-05,0.000119977011,0.000294604114
-2.95,9.67811823e-07,1.07997718e-05,2.68974675e-05,5.38656531e-05,0.00011287073,0.000276389206
-3.0,9.67309495e-07,1.06817362e-05,2.63980526e-05,5.22180733e-05,0.00010660305,0.000258348247
-3.05,9.66882359e-07,1.05686031e-05,2.59257266e-05,5.0696456e-05,0.000101050421,0.000240702549
-3.1,9.66526919e-07,1.04600817e-05,2.54783662e-05,4.92870619e-05,9.61078395e-05,0.000223747193
-3.15,9.66239892e-07,1.03559037e-05,2.5054064e-05,4.79780596e-05,9.1687098e-05,0.000207784642
-3.2,9.66018196e-07,1.02558213e-05,2.46511021e-05,4.67592094e-05,8.77144668e-05,0.000193050075
-3.25,9.65858937e-07,1.01596051e-05,2.42679284e-05,4.56216071e-05,8.4128371e-05,0.00017966863
-3.3,9.65759389e-07,1.00670426e-05,2.39031378e-05,4.4557475e-05,8.08773039e-05,0.000167656364
-3.35,9.65716991e-07,9.97793644e-06,2.35554547e-05,4.35599908e-05,7.79180453e-05,0.000156948739
-3.4,9.65729327e-07,9.89210334e-06,2.3223719e-05,4.26231462e-05,7.52141826e-05,0.000147435012
-3.45,9.65794124e-07,9.80937272e-06,2.29068727e-05,4.17416302e-05,7.27349006e-05,0.000138985905
-3.5,9.65909235e-07,9.72958566e-06,2.26039493e-05,4.09107307e-05,7.04539967e-05,0.000131471425
-3.55,9.66072638e-07,9.65259392e-06,2.2314064e-05,4.01262536e-05,6.83490843e-05,0.000124770444
-3.6,9.66282421e-07,9.5782591e-06,2.20364054e-05,3.93844533e-05,6.64009452e-05,0.0001187748
-3.65,9.6653678e-07,9.5064518e-06,2.17702278e-05,3.86819751e-05,6.45930048e-05,0.000113390244
-3.7,9.66834011e-07,9.43705095e-06,2.15148449e-05,3.80158052e-05,6.29109036e-05,0.000108535771
-3.75,9.67172501e-07,9.36994313e-06,2.12696241e-05,3.73832291e-05,6.13421472e-05,0.000104142252
-3.8,9.67550727e-07,9.30502201e-06,2.1033981e-05,3.67817951e-05,5.98758187e-05,0.00010015087
-3.85,9.67967246e-07,9.24218777e-06,2.08073753e-05,3.62092837e-05,5.85023418e-05,9.65116008e-05
-3.9,9.68420695e-07,9.1813467e-06,2.05893063e-05,3.56636806e-05,5.72132838e-05,9.31818338e-05
-3.95,9.6890978e-07,9.12241068e-06,2.037931e-05,3.51431537e-05,5.60011922e-05,9.01251889e-05
-4.0,9.6943328e-07,9.0652968e-06,2.01769551e-05,3.4646033e-05,5.48594585e-05,8.73105054e-05
-4.05,9.69990035e-07,9.009927e-06,1.99818408e-05,3.41707931e-05,5.37822025e-05,8.47109998e-05
-4.1,9.70578948e-07,8.95622775e-06,1.97935935e-05,3.3716038e-05,5.27641763e-05,8.23035637e-05
-4.15,9.71198979e-07,8.90412971e-06,1.96118653e-05,3.32804877e-05,5.18006821e-05,8.00681833e-05
-4.2,9.7184914e-07,8.85356743e-06,1.94363313e-05,3.28629661e-05,5.08875025e-05,7.79874582e-05
-4.25,9.72528499e-07,8.80447916e-06,1.92666881e-05,3.24623913e-05,5.00208412e-05,7.60462024e-05
-4.3,9.73236167e-07,8.75680655e-06,1.91026518e-05,3.20777658e-05,4.91972719e-05,7.42311132e-05
-4.35,9.73971306e-07,8.71049444e-06,1.89439566e-05,3.1708169e-05,4.84136949e-05,7.25304957e-05
-4.4,9.74733118e-07,8.66549066e-06,1.87903534e-05,3.13527496e-05,4.76672991e-05,7.09340322e-05
-4.45,9.75520846e-07,8.62174587e-06,1.86416088e-05,3.10107191e-05,4.69555293e-05,6.94325897e-05
-4.5,9.76333774e-07,8.57921333e-06,1.84975033e-05,3.06813468e-05,4.62760582e-05,6.80180577e-05
-4.55,9.77171221e-07,8.53784877e-06,1.83578309e-05,3.03639537e-05,4.56267614e-05,6.6683211e-05
-4.6,9.78032542e-07,8.49761027e-06,1.82223979e-05,3.0057909e-05,4.50056959e-05,6.54215942e-05
-4.65,9.78917125e-07,8.45845805e-06,1.80910219e-05,2.97626253e-05,4.44110816e-05,6.42274234e-05
-4.7,9.79824388e-07,8.42035441e-06,1.79635312e-05,2.94775551e-05,4.3841284e-05,6.30955016e-05
-4.75,9.8075378e-07,8.38326355e-06,1.78397641e-05,2.92021876e-05,4.32948003e-05,6.20211475e-05
-4.8,9.81704778e-07,8.34715152e-06,1.77195678e-05,2.89360459e-05,4.27702461e-05,6.10001335e-05
-4.85,9.82676886e-07,8.31198606e-06,1.76027984e-05,2.86786837e-05,4.22663442e-05,6.00286327e-05
-4.9,9.83669632e-07,8.27773652e-06,1.748932e-05,2.84296836e-05,4.17819144e-05,5.91031727e-05
-4.95,9.8468257e-07,8.2443738e-06,1.73790042e-05,2.81886545e-05,4.13158645e-05,5.82205962e-05
-5.0,9.85715275e-07,8.21187022e-06,1.72717296e-05,2.79552295e-05,4.08671824e-05,5.7378026e-05
-5.05,9.86767346e-07,8.18019944e-06,1.71673814e-05,2.77290645e-05,4.0434929e-05,5.65728349e-05
-5.1,9.87838401e-07,8.14933645e-06,1.7065851e-05,2.75098361e-05,4.00182315e-05,5.58026196e-05
-5.15,9.88928077e-07,8.1192574e-06,1.69670356e-05,2.72972405e-05,3.9616278e-05,5.50651772e-05
-5.2,9.90036031e-07,8.08993961e-06,1.68708379e-05,2.70909917e-05,3.92283122e-05,5.4358485e-05
-5.25,9.91161937e-07,8.0613615e-06,1.67771656e-05,2.68908206e-05,3.8853629e-05,5.36806826e-05
-5.3,9.92305486e-07,8.03350247e-06,1.66859312e-05,2.66964737e-05,3.84915699e-05,5.30300558e-05
-5.35,9.93466384e-07,8.00634293e-06,1.6597052e-05,2.65077119e-05,3.81415197e-05,5.24050231e-05
-5.4,9.94644354e-07,7.9798642e-06,1.65104493e-05,2.632431e-05,3.78029027e-05,5.18041228e-05
-5.45,9.9583913e-07,7.95404844e-06,1.64260484e-05,2.6146055e-05,3.74751802e-05,5.12260021e-05
-5.5,9.97050463e-07,7.92887867e-06,1.63437786e-05,2.59727463e-05,3.71578468e-05,5.06694071e-05
-5.55,9.98278115e-07,7.90433866e-06,1.62635727e-05,2.58041939e-05,3.68504289e-05,5.01331743e-05
-5.6,9.99521861e-07,7.88041293e-06,1.61853666e-05,2.56402186e-05,3.65524815e-05,4.96162223e-05
-5.65,1.00078149e-06,7.85708671e-06,1.61090998e-05,2.54806507e-05,3.62635869e-05,4.91175451e-05
-5.7,1.00205679e-06,7.83434586e-06,1.60347145e-05,2.53253298e-05,3.5983352e-05,4.86362056e-05
-5.75,1.00334758e-06,7.8121769e-06,1.59621558e-05,2.51741039e-05,3.5711407e-05,4.81713298e-05
-5.8,1.00465367e-06,7.79056692e-06,1.58913717e-05,2.50268292e-05,3.54474039e-05,4.77221019e-05
-5.85,1.00597489e-06,7.76950358e-06,1.58223124e-05,2.48833695e-05,3.51910147e-05,4.72877594e-05
-5.9,1.00731108e-06,7.74897509e-06,1.57549306e-05,2.47435956e-05,3.49419302e-05,4.68675891e-05
-5.95,1.00866208e-06,7.72897014e-06,1.56891814e-05,2.46073853e-05,3.46998587e-05,4.64609229e-05
-6.0,1.01002774e-06,7.7094779e-06,1.56250219e-05,2.44746225e-05,3.4464525e-05,4.60671351e-05
-6.05,1.01140792e-06,7.69048803e-06,1.55624113e-05,2.43451971e-05,3.42356692e-05,4.56856386e-05
-6.1,1.0128025e-06,7.67199057e-06,1.55013107e-05,2.42190046e-05,3.40130458e-05,4.53158821e-05
-6.15,1.01421133e-06,7.653976e-06,1.54416829e-05,2.40959459e-05,3.37964226e-05,4.49573479e-05
-6.2,1.01563431e-06,7.63643518e-06,1.53834926e-05,2.39759268e-05,3.35855804e-05,4.46095493e-05
-6.25,1.01707132e-06,7.61935934e-06,1.53267059e-05,2.3858858e-05,3.33803115e-05,4.42720281e-05
-6.3,1.01852225e-06,7.60274004e-06,1.52712907e-05,2.37446544e-05,3.31804195e-05,4.39443534e-05
-6.35,1.019987e-06,7.58656918e-06,1.52172161e-05,2.36332354e-05,3.29857185e-05,4.36261189e-05
-6.4,1.02146547e-06,7.57083899e-06,1.51644528e-05,2.35245241e-05,3.27960324e-05,4.33169417e-05
-6.45,1.02295758e-06,7.55554196e-06,1.51129726e-05,2.34184475e-05,3.26111945e-05,4.3016461e-05
-6.5,1.02446322e-06,7.54067088e-06,1.50627487e-05,2.33149362e-05,3.24310466e-05,4.2724336e-05
-6.55,1.02598232e-06,7.52621882e-06,1.50137553e-05,2.32139242e-05,3.2255439e-05,4.24402451e-05
-6.6,1.0275148e-06,7.51217907e-06,1.49659678e-05,2.31153484e-05,3.20842294e-05,4.21638846e-05
