vds,vb1,vb2,vb3,vb4,vb5,vb6
0.0,2.78047998e-07,2.51901627e-06,4.44333998e-06,6.08758929e-06,7.50678218e-06,8.74268394e-06
-0.05,1.56008777e-07,2.3608587e-06,4.29555989e-06,5.95072334e-06,7.37994825e-06,8.62488213e-06
-0.1,5.57293437e-08,2.20281605e-06,4.14786114e-06,5.81392611e-06,7.25317389e-06,8.50713254e-06
-0.15,1.21829254e-08,2.04489772e-06,4.00024433e-06,5.67719769e-06,7.12645912e-06,8.38943515e-06
-0.2,3.17193838e-09,1.88711776e-06,3.85271018e-06,5.54053819e-06,6.99980396e-06,8.27178996e-06
-0.25,1.2407294e-09,1.72949771e-06,3.70525962e-06,5.40394774e-06,6.87320843e-06,8.15419697e-06
-0.3,6.63852809e-10,1.5720715e-06,3.55789377e-06,5.26742652e-06,6.74667256e-06,8.03665616e-06
-0.35,4.38626351e-10,1.41489447e-06,3.41061407e-06,5.13097471e-06,6.62019638e-06,7.91916756e-06
-0.4,3.32185983e-10,1.2580601e-06,3.26342236e-06,4.99459254e-06,6.49377994e-06,7.80173114e-06
-0.45,2.74338516e-10,1.10173306e-06,3.11632096e-06,4.8582803e-06,6.36742329e-06,7.68434693e-06
-0.5,2.39387232e-10,9.46216315e-07,2.9693129e-06,4.7220383e-06,6.2411265e-06,7.56701493e-06
-0.55,2.16456422e-10,7.92093038e-07,2.82240211e-06,4.58586693e-06,6.11488964e-06,7.44973516e-06
-0.6,2.00399729e-10,6.40531594e-07,2.67559377e-06,4.44976666e-06,5.9887128e-06,7.33250762e-06
-0.65,1.8855654e-10,4.93920991e-07,2.52889481e-06,4.31373804e-06,5.86259607e-06,7.21533235e-06
-0.7,1.79448564e-10,3.56998988e-07,2.38231455e-06,4.17778172e-06,5.73653958e-06,7.09820936e-06
-0.75,1.72203679e-10,2.3790747e-07,2.23586582e-06,4.04189852e-06,5.61054346e-06,6.98113868e-06
-0.8,1.66280599e-10,1.46314966e-07,2.08956645e-06,3.90608938e-06,5.48460788e-06,6.86412035e-06
-0.85,1.61328429e-10,8.63215396e-08,1.94344171e-06,3.77035547e-06,5.35873301e-06,6.74715441e-06
-0.9,1.57110955e-10,5.21797971e-08,1.79752805e-06,3.63469822e-06,5.23291908e-06,6.63024091e-06
-0.95,1.53463833e-10,3.40478555e-08,1.65187921e-06,3.49911936e-06,5.10716633e-06,6.5133799e-06
-1.0,1.50269359e-10,2.43912227e-08,1.50657606e-06,3.36362104e-06,4.98147506e-06,6.39657145e-06
-1.05,1.47441051e-10,1.9009599e-08,1.36174321e-06,3.22820591e-06,4.85584558e-06,6.27981563e-06
-1.1,1.44913904e-10,1.58192823e-08,1.21757736e-06,3.09287729e-06,4.7302783e-06,6.16311252e-06
-1.15,1.42638062e-10,1.38036014e-08,1.07439638e-06,2.95763937e-06,4.60477367e-06,6.04646223e-06
-1.2,1.40574593e-10,1.24523872e-08,9.3272513e-07,2.82249746e-06,4.47933222e-06,5.92986485e-06
-1.25,1.38692603e-10,1.14978839e-08,7.93443198e-07,2.68745835e-06,4.35395457e-06,5.81332052e-06
-1.3,1.36967216e-10,1.07925007e-08,6.58026816e-07,2.55253084e-06,4.22864144e-06,5.69682937e-06
-1.35,1.35378148e-10,1.02508973e-08,5.2889297e-07,2.41772644e-06,4.10339369e-06,5.58039157e-06
-1.4,1.3390866e-10,9.82147704e-09,4.09723955e-07,2.28306035e-06,3.97821233e-06,5.4640073e-06
-1.45,1.32544794e-10,9.47174586e-09,3.0532979e-07,2.14855295e-06,3.85309858e-06,5.34767677e-06
-1.5,1.31274802e-10,9.1804699e-09,2.20354773e-07,2.01423187e-06,3.72805384e-06,5.23140022e-06
-1.55,1.30088707e-10,8.93330275e-09,1.56942924e-07,1.8801351e-06,3.60307984e-06,5.11517792e-06
-1.6,1.28977972e-10,8.72025563e-09,1.1332269e-07,1.74631571e-06,3.47817864e-06,4.99901017e-06
-1.65,1.27935241e-10,8.53418283e-09,8.49602955e-08,1.61284894e-06,3.35335272e-06,4.88289733e-06
-1.7,1.2695413e-10,8.36984629e-09,6.69371289e-08,1.47984321e-06,3.2286051e-06,4.7668398e-06
-1.75,1.26029071e-10,8.22332095e-09,5.54139609e-08,1.34745734e-06,3.10393949e-06,4.65083805e-06
-1.8,1.25155176e-10,8.09160687e-09,4.78579752e-08,1.21592756e-06,2.97936043e-06,4.5348926e-06
-1.85,1.24328135e-10,7.97236982e-09,4.27262212e-08,1.08561008e-06,2.85487358e-06,4.41900407e-06
-1.9,1.23544131e-10,7.86376416e-09,3.91044962e-08,9.57047239e-07,2.73048599e-06,4.30317317e-06
-1.95,1.22799765e-10,7.76430918e-09,3.64502933e-08,8.31066648e-07,2.60620653e-06,4.1874007e-06
-2.0,1.22092003e-10,7.67280128e-09,3.4436114e-08,7.08917886e-07,2.48204648e-06,4.07168762e-06
-2.05,1.21418124e-10,7.58825044e-09,3.2859299e-08,5.92428279e-07,2.3580203e-06,3.95603504e-06
-2.1,1.2077568e-10,7.50983356e-09,3.1590891e-08,4.84098201e-07,2.23414668e-06,3.84044423e-06
-2.15,1.20162459e-10,7.43685957e-09,3.05464486e-08,3.8695804e-07,2.11045008e-06,3.72491672e-06
-2.2,1.19576461e-10,7.36874319e-09,2.96691096e-08,3.03972518e-07,1.98696279e-06,3.60945428e-06
-2.25,1.1901587e-10,7.30498467e-09,2.89195469e-08,2.37027817e-07,1.86372798e-06,3.49405902e-06
-2.3,1.18479032e-10,7.24515415e-09,2.82698701e-08,1.86070643e-07,1.74080402e-06,3.37873345e-06
-2.35,1.17964436e-10,7.18887947e-09,2.76998332e-08,1.49118806e-07,1.61827079e-06,3.26348054e-06
-2.4,1.17470704e-10,7.13583637e-09,2.71944195e-08,1.23142647e-07,1.49623895e-06,3.14830389e-06
-2.45,1.16996569e-10,7.08574077e-09,2.67422684e-08,1.05089244e-07,1.37486355e-06,3.03320782e-06
-2.5,1.16540867e-10,7.03834249e-09,2.63346278e-08,9.24722922e-08,1.2543642e-06,2.91819756e-06
-2.55,1.1610253e-10,6.99342016e-09,2.5964643e-08,8.34987868e-08,1.13505458e-06,2.80327953e-06
-2.6,1.15680569e-10,6.95077702e-09,2.56268638e-08,7.69583957e-08,1.01738497e-06,2.6884616e-06
-2.65,1.15274072e-10,6.91023747e-09,2.53168964e-08,7.20586727e-08,9.02000913e-07,2.57375349e-06
-2.7,1.14882195e-10,6.87164422e-09,2.50311547e-08,6.82849631e-08,7.89817857e-07,2.45916734e-06
-2.75,1.14504155e-10,6.83485586e-09,2.47666777e-08,6.53011531e-08,6.82100724e-07,2.3447184e-06
-2.8,1.14139227e-10,6.79974484e-09,2.45209958e-08,6.28847274e-08,5.80513923e-07,2.23042595e-06
-2.85,1.13786733e-10,6.76619576e-09,2.42920293e-08,6.08856998e-08,4.87072135e-07,2.11631463e-06
-2.9,1.13446046e-10,6.73410393e-09,2.4078012e-08,5.92009135e-08,4.03900867e-07,2.00241619e-06
-2.95,1.13116579e-10,6.70337407e-09,2.3877432e-08,5.77579206e-08,3.32771077e-07,1.88877188e-06
-3.0,1.12797784e-10,6.67391929e-09,2.36889861e-08,5.65047705e-08,2.74545636e-07,1.77543586e-06
-3.05,1.12489149e-10,6.64566015e-09,2.35115433e-08,5.54034508e-08,2.28848869e-07,1.66247988e-06
-3.1,1.12190196e-10,6.61852385e-09,2.33441162e-08,5.44256078e-08,1.94197346e-07,1.54999989e-06
-3.15,1.11900476e-10,6.59244352e-09,2.31858382e-08,5.35497051e-08,1.68501816e-07,1.43812537e-06
-3.2,1.11619569e-10,6.56735764e-09,2.30359447e-08,5.27591051e-08,1.49617243e-07,1.32703245e-06
-3.25,1.1134708e-10,6.54320949e-09,2.28937578e-08,5.20407512e-08,1.35695648e-07,1.21696224e-06
-3.3,1.11082637e-10,6.51994668e-09,2.27586744e-08,5.13842469e-08,1.25306973e-07,1.10824602e-06
-3.35,1.10825891e-10,6.49752072e-09,2.26301549e-08,5.07812033e-08,1.1741349e-07,1.00133872e-06
-3.4,1.10576515e-10,6.4758867e-09,2.25077157e-08,5.02247671e-08,1.11288221e-07,8.9686072e-07
-3.45,1.10334198e-10,6.45500291e-09,2.23909211e-08,4.97092772e-08,1.06429735e-07,7.95643952e-07
-3.5,1.10098649e-10,6.4348306e-09,2.22793777e-08,4.92300086e-08,1.02493028e-07,6.98770257e-07
-3.55,1.09869592e-10,6.41533367e-09,2.21727291e-08,4.87829806e-08,9.92392999e-08,6.07575929e-07
-3.6,1.09646767e-10,6.3964785e-09,2.20706516e-08,4.83648107e-08,9.65013926e-08,5.23582294e-07
-3.65,1.09429928e-10,6.37823369e-09,2.19728501e-08,4.79726021e-08,9.41606003e-08,4.48312741e-07
-3.7,1.09218843e-10,6.3605699e-09,2.18790553e-08,4.76038562e-08,9.21312589e-08,3.82997183e-07
-3.75,1.09013292e-10,6.34345969e-09,2.17890208e-08,4.72564036e-08,9.03505009e-08,3.2824921e-07
-3.8,1.08813065e-10,6.32687734e-09,2.17025203e-08,4.69283492e-08,8.87714034e-08,2.8387085e-07
-3.85,1.08617967e-10,6.31079874e-09,2.16193459e-08,4.66180285e-08,8.735836e-08,2.48903021e-07
-3.9,1.08427809e-10,6.29520129e-09,2.15393062e-08,4.63239722e-08,8.60839184e-08,2.21895284e-07
-3.95,1.08242413e-10,6.2800637e-09,2.14622244e-08,4.60448768e-08,8.49265909e-08,2.01246073e-07
-4.0,1.08061612e-10,6.265366e-09,2.13879371e-08,4.57795814e-08,8.38693175e-08,1.85468283e-07
-4.05,1.07885244e-10,6.25108936e-09,2.13162931e-08,4.55270473e-08,8.28983728e-08,1.73324857e-07
-4.1,1.07713158e-10,6.23721605e-09,2.12471519e-08,4.52863421e-08,8.20025776e-08,1.63857011e-07
-4.15,1.07545209e-10,6.22372936e-09,2.11803833e-08,4.5056626e-08,8.11727221e-08,1.56353335e-07
-4.2,1.07381259e-10,6.21061353e-09,2.11158659e-08,4.48371397e-08,8.04011392e-08,1.50298652e-07
-4.25,1.07221176e-10,6.19785364e-09,2.10534867e-08,4.46271951e-08,7.96813843e-08,1.45323879e-07
-4.3,1.07064837e-10,6.18543563e-09,2.09931404e-08,4.44261663e-08,7.90079925e-08,1.41164956e-07
-4.35,1.06912122e-10,6.17334618e-09,2.09347286e-08,4.42334832e-08,7.83762919e-08,1.37632003e-07
-4.4,1.06762917e-10,6.1615727e-09,2.0878159e-08,4.40486245e-08,7.77822586e-08,1.34587213e-07
-4.45,1.06617115e-10,6.15010326e-09,2.08233456e-08,4.38711129e-08,7.72224035e-08,1.31929374e-07
-4.5,1.06474612e-10,6.13892655e-09,2.07702077e-08,4.37005102e-08,7.66936821e-08,1.29583142e-07
-4.55,1.0633531e-10,6.12803186e-09,2.07186693e-08,4.35364134e-08,7.61934228e-08,1.27491623e-07
-4.6,1.06199115e-10,6.11740901e-09,2.06686593e-08,4.33784508e-08,7.57192685e-08,1.25611232e-07
-4.65,1.06065936e-10,6.10704837e-09,2.06201108e-08,4.32262795e-08,7.52691298e-08,1.23908094e-07
-4.7,1.05935689e-10,6.09694075e-09,2.05729609e-08,4.30795821e-08,7.4841146e-08,1.22355516e-07
-4.75,1.0580829e-10,6.08707744e-09,2.05271503e-08,4.29380645e-08,7.44336536e-08,1.20932182e-07
-4.8,1.05683662e-10,6.07745017e-09,2.0482623e-08,4.28014539e-08,7.40451592e-08,1.19620853e-07
-4.85,1.05561728e-10,6.06805106e-09,2.04393264e-08,4.26694967e-08,7.36743178e-08,1.18407426e-07
-4.9,1.05442418e-10,6.0588726e-09,2.03972106e-08,4.25419566e-08,7.33199136e-08,1.17280231e-07
-4.95,1.05325661e-10,6.04990766e-09,2.03562287e-08,4.24186137e-08,7.29808446e-08,1.16229518e-07
-5.0,1.05211392e-10,6.04114943e-09,2.03163362e-08,4.22992626e-08,7.26561088e-08,1.15247059e-07
-5.05,1.05099547e-10,6.03259143e-09,2.0277491e-08,4.21837112e-08,7.23447928e-08,1.14325854e-07
-5.1,1.04990066e-10,6.02422748e-09,2.02396533e-08,4.20717802e-08,7.20460619e-08,1.134599e-07
-5.15,1.0488289e-10,6.01605167e-09,2.02027854e-08,4.19633012e-08,7.17591512e-08,1.12644008e-07
-5.2,1.04777964e-10,6.00805838e-09,2.01668516e-08,4.18581165e-08,7.14833587e-08,1.11873667e-07
-5.25,1.04675232e-10,6.00024223e-09,2.01318179e-08,4.17560782e-08,7.12180383e-08,1.11144926e-07
-5.3,1.04574644e-10,5.99259808e-09,2.00976521e-08,4.16570471e-08,7.09625945e-08,1.10454312e-07
-5.35,1.0447615e-10,5.98512103e-09,2.00643236e-08,4.15608924e-08,7.07164771e-08,1.09798748e-07
-5.4,1.04379702e-10,5.97780639e-09,2.00318035e-08,4.1467491e-08,7.04791773e-08,1.09175504e-07
-5.45,1.04285253e-10,5.97064965e-09,2.00000641e-08,4.13767268e-08,7.02502233e-08,1.08582138e-07
-5.5,1.0419276e-10,5.96364654e-09,1.99690792e-08,4.12884906e-08,7.00291772e-08,1.08016463e-07
-5.55,1.0410218e-10,5.95679293e-09,1.99388238e-08,4.1202679e-08,6.98156319e-08,1.07476512e-07
-5.6,1.04013471e-10,5.95008489e-09,1.99092741e-08,4.11191947e-08,6.96092083e-08,1.06960507e-07
-5.65,1.03926595e-10,5.94351863e-09,1.98804075e-08,4.10379454e-08,6.94095529e-08,1.0646684e-07
-5.7,1.03841512e-10,5.93709055e-09,1.98522024e-08,4.0958844e-08,6.92163359e-08,1.05994047e-07
-5.75,1.03758186e-10,5.93079716e-09,1.98246381e-08,4.08818081e-08,6.90292489e-08,1.05540796e-07
-5.8,1.03676581e-10,5.92463515e-09,1.97976951e-08,4.08067595e-08,6.88480032e-08,1.0510587e-07
-5.85,1.03596662e-10,5.9186013e-09,1.97713547e-08,4.07336243e-08,6.86723284e-08,1.04688155e-07
-5.9,1.03518397e-10,5.91269255e-09,1.9745599e-08,4.06623324e-08,6.85019709e-08,1.04286627e-07
-5.95,1.03441753e-10,5.90690596e-09,1.97204108e-08,4.05928171e-08,6.83366926e-08,1.03900345e-07
-6.0,1.03366698e-10,5.90123867e-09,1.9695774e-08,4.05250152e-08,6.81762697e-08,1.03528443e-07
-6.05,1.03293204e-10,5.89568797e-09,1.96716728e-08,4.04588667e-08,6.80204918e-08,1.03170119e-07
-6.1,1.0322124e-10,5.89025123e-09,1.96480924e-08,4.03943147e-08,6.78691605e-08,1.02824633e-07
-6.15,1.03150778e-10,5.88492592e-09,1.96250185e-08,4.03313048e-08,6.77220891e-08,1.02491296e-07
-6.2,1.03081791e-10,5.87970962e-09,1.96024375e-08,4.02697854e-08,6.75791015e-08,1.02169473e-07
-6.25,1.03014253e-10,5.87459997e-09,1.95803362e-08,4.02097076e-08,6.74400314e-08,1.01858571e-07
-6.3,1.02948136e-10,5.86959472e-09,1.95587022e-08,4.01510245e-08,6.73047217e-08,1.01558037e-07
-6.35,1.02883418e-10,5.86469168e-09,1.95375235e-08,4.00936916e-08,6.71730239e-08,1.01267358e-07
-6.4,1.02820072e-10,5.85988875e-09,1.95167884e-08,4.00376665e-08,6.70447976e-08,1.00986052e-07
-6.45,1.02758075e-10,5.85518391e-09,1.94964861e-08,3.99829087e-08,6.69199099e-08,1.00713672e-07
-6.5,1.02697405e-10,5.85057519e-09,1.94766058e-08,3.99293795e-08,6.67982347e-08,1.00449797e-07
-6.55,1.02638039e-10,5.8460607e-09,1.94571375e-08,3.98770422e-08,6.66796529e-08,1.00194033e-07
-6.6,1.02579955e-10,5.8416386e-09,1.94380713e-08,3.98258616e-08,6.65640511e-08,9.99460112e-08
