vds,vb1,vb2,vb3,vb4,vb5,vb6
0.0,0.000263818427,0.00129141697,0.00204898918,0.00262046587,0.0030309179,0.00330702
0.05,0.000170789883,0.00117101162,0.00191441105,0.00248067718,0.00289350271,0.00317706397
0.1,8.98702796e-05,0.0010567166,0.00178646833,0.0023473284,0.00276188098,0.00305206417
0.15,3.89767807e-05,0.000948117063,0.00166472196,0.00222002402,0.00263572831,0.00293177003
0.2,2.09252246e-05,0.000844822195,0.0015487591,0.00209839211,0.00251473878,0.00281594442
0.25,1.48549937e-05,0.000746458884,0.00143818929,0.00198208057,0.00239862208,0.00270436162
0.3,1.200914e-05,0.00065265837,0.00133264274,0.0018707556,0.00228710177,0.00259680593
0.35,1.03292545e-05,0.000563026125,0.00123176812,0.00176410149,0.00217991478,0.00249307099
0.4,9.20535513e-06,0.000477094704,0.00113522696,0.00166182068,0.00207681143,0.00239295955
0.45,8.39551241e-06,0.000394344799,0.00104268134,0.00156363321,0.00197755578,0.00229628354
0.5,7.78266372e-06,0.000314776439,0.000953770172,0.00146927465,0.0018819259,0.00220286437
0.55,7.30233467e-06,0.000240966378,0.000868065632,0.00137849171,0.00178971359,0.00211253316
0.6,6.91573611e-06,0.000179236565,0.000784996613,0.0012910344,0.00170072351,0.00202513085
0.65,6.5979956e-06,0.000134000764,0.000703723866,0.00120664301,0.00161477133,0.00194050808
0.7,6.33237477e-06,0.000103353021,0.00062298566,0.00112502686,0.00153168071,0.00185852479
0.75,6.10717214e-06,8.27852035e-05,0.000541116947,0.00104582964,0.00145127862,0.00177904938
0.8,5.91395081e-06,6.86055473e-05,0.000456946232,0.000968572829,0.00137338833,0.0017019575
0.85,5.74646949e-06,5.84598222e-05,0.00037234638,0.000892565589,0.00129781886,0.0016271302
0.9,5.60000985e-06,5.09330038e-05,0.000293995024,0.000816775206,0.00122434899,0.00155445138
0.95,5.47093768e-06,4.5168521e-05,0.000229234361,0.000739696554,0.00115270241,0.00148380421
1.0,5.35640811e-06,4.06325788e-05,0.00018033062,0.00065942141,0.00108250889,0.00141506613
1.05,5.25416219e-06,3.69808804e-05,0.000144920978,0.000574444491,0.0010132442,0.00134810154
1.1,5.16238344e-06,3.39837393e-05,0.000119384966,0.000485728939,0.000944141823,0.00128275119
1.15,5.07959466e-06,3.14831087e-05,0.000100677156,0.000398609385,0.000874081628,0.00121881626
1.2,5.00458231e-06,2.93671783e-05,8.66513697e-05,0.000320811312,0.00080151166,0.00115603414
1.25,4.93634028e-06,2.75548774e-05,7.58776552e-05,0.00025736957,0.000724597569,0.00109404183
1.3,4.87402748e-06,2.59861295e-05,6.74109905e-05,0.000208592118,0.000642003869,0.00103232171
1.35,4.81693544e-06,2.46155471e-05,6.06194336e-05,0.000171988853,0.000554564681,0.000970126772
1.4,4.76446316e-06,2.3408247e-05,5.50720461e-05,0.000144534531,0.000466741139,0.000906395283
1.45,4.71609761e-06,2.23370044e-05,5.04684387e-05,0.000123691559,0.000385378724,0.000839707534
1.5,4.67139821e-06,2.1380278e-05,4.65945916e-05,0.000107590972,0.000315924834,0.000768434916
1.55,4.62998452e-06,2.05208111e-05,4.32948251e-05,9.4919849e-05,0.000260091565,0.000691355992
1.6,4.59152639e-06,1.9744624e-05,4.04536989e-05,8.47661634e-05,0.000216623749,0.000608896168
1.65,4.55573592e-06,1.90402764e-05,3.79840917e-05,7.6492928e-05,0.000183110131,0.000524314817
1.7,4.52236093e-06,1.83983186e-05,3.58191917e-05,6.96494524e-05,0.00015716387,0.000443210014
1.75,4.49117966e-06,1.78108793e-05,3.39070096e-05,6.39117082e-05,0.000136847532,0.000370948903
1.8,4.46199628e-06,1.72713507e-05,3.22065499e-05,5.90427698e-05,0.000120709947,0.000310334066
1.85,4.43463728e-06,1.67741458e-05,3.06850938e-05,5.48664992e-05,0.000107697413,0.000261400997
1.9,4.40894835e-06,1.63145098e-05,2.93162388e-05,5.12498612e-05,9.70505163e-05,0.000222598461
1.95,4.38479186e-06,1.5888371e-05,2.80784633e-05,4.80908753e-05,8.82196191e-05,0.000191930611
2.0,4.36204461e-06,1.54922229e-05,2.69540617e-05,4.53102843e-05,8.08029193e-05,0.000167559488
2.05,4.34059607e-06,1.51230299e-05,2.59283436e-05,4.28457041e-05,7.45029697e-05,0.000147997419
2.1,4.32034677e-06,1.4778151e-05,2.49890242e-05,4.06474532e-05,6.90965785e-05,0.000132106645
2.15,4.30120694e-06,1.4455278e-05,2.41257561e-05,3.86755382e-05,6.44139864e-05,0.000119036919
2.2,4.2830954e-06,1.41523847e-05,2.33297655e-05,3.68974432e-05,6.03243678e-05,0.000108156643
2.25,4.26593854e-06,1.38676853e-05,2.25935657e-05,3.52864882e-05,5.67256357e-05,9.89952258e-05
2.3,4.24966948e-06,1.35996e-05,2.1910732e-05,3.38205966e-05,5.35371887e-05,9.11993205e-05
2.35,4.23422731e-06,1.33467259e-05,2.12757209e-05,3.24813565e-05,5.06946884e-05,8.45009371e-05
2.4,4.21955645e-06,1.31078135e-05,2.0683725e-05,3.12533012e-05,4.81462517e-05,7.86945695e-05
2.45,4.20560609e-06,1.28817456e-05,2.01305559e-05,3.012335e-05,4.58496417e-05,7.36208423e-05
2.5,4.19232966e-06,1.26675211e-05,1.96125478e-05,2.90803707e-05,4.37701698e-05,6.91547794e-05
2.55,4.17968446e-06,1.24642398e-05,1.91264796e-05,2.81148336e-05,4.18791135e-05,6.51973295e-05
2.6,4.16763123e-06,1.227109e-05,1.86695091e-05,2.72185364e-05,4.01525086e-05,6.16691884e-05
2.65,4.15613379e-06,1.20873384e-05,1.82391198e-05,2.63843829e-05,3.8570219e-05,5.85062532e-05
2.7,4.14515882e-06,1.19123204e-05,1.78330754e-05,2.56062047e-05,3.71152132e-05,5.5656241e-05
2.75,4.13467551e-06,1.17454324e-05,1.74493823e-05,2.48786155e-05,3.57729971e-05,5.30761499e-05
2.8,4.12465538e-06,1.15861251e-05,1.70862576e-05,2.4196892e-05,3.45311643e-05,5.07303326e-05
2.85,4.11507204e-06,1.14338972e-05,1.6742102e-05,2.3556876e-05,3.33790384e-05,4.85890203e-05
2.9,4.10590101e-06,1.12882909e-05,1.64154771e-05,2.29548928e-05,3.23073852e-05,4.6627182e-05
2.95,4.09711956e-06,1.11488866e-05,1.61050856e-05,2.23876834e-05,3.13081799e-05,4.48236352e-05
3.0,4.08870655e-06,1.10152994e-05,1.58097544e-05,2.1852348e-05,3.03744175e-05,4.31603453e-05
3.05,4.08064229e-06,1.08871755e-05,1.55284204e-05,2.13462978e-05,2.94999578e-05,4.16218714e-05
3.1,4.07290844e-06,1.07641892e-05,1.52601178e-05,2.08672152e-05,2.86793967e-05,4.01949231e-05
3.15,4.06548788e-06,1.064604e-05,1.50039672e-05,2.04130188e-05,2.79079607e-05,3.88680038e-05
3.2,4.05836459e-06,1.05324504e-05,1.47591662e-05,1.99818347e-05,2.7181418e-05,3.76311218e-05
3.25,4.05152364e-06,1.04231636e-05,1.45249814e-05,1.95719715e-05,2.64960049e-05,3.64755554e-05
3.3,4.04495099e-06,1.03179417e-05,1.43007408e-05,1.91818981e-05,2.58483626e-05,3.53936594e-05
3.35,4.03863353e-06,1.0216564e-05,1.40858279e-05,1.88102259e-05,2.52354855e-05,3.4378706e-05
3.4,4.03255894e-06,1.01188253e-05,1.38796758e-05,1.84556926e-05,2.46546757e-05,3.34247527e-05
3.45,4.02671565e-06,1.0024535e-05,1.36817626e-05,1.81171478e-05,2.41035051e-05,3.25265322e-05
3.5,4.0210928e-06,9.93351519e-06,1.34916067e-05,1.77935415e-05,2.35797827e-05,3.167936e-05
3.55,4.01568017e-06,9.84560016e-06,1.33087634e-05,1.7483913e-05,2.30815268e-05,3.08790567e-05
3.6,4.01046812e-06,9.76063512e-06,1.31328211e-05,1.71873818e-05,2.26069404e-05,3.01218827e-05
3.65,4.0054476e-06,9.67847539e-06,1.29633984e-05,1.69031395e-05,2.21543904e-05,2.94044819e-05
3.7,4.00061005e-06,9.59898554e-06,1.28001414e-05,1.66304427e-05,2.17223897e-05,2.87238343e-05
3.75,3.9959474e-06,9.5220387e-06,1.26427214e-05,1.63686062e-05,2.1309581e-05,2.80772156e-05
3.8,3.99145202e-06,9.4475159e-06,1.24908324e-05,1.61169979e-05,2.09147232e-05,2.74621616e-05
3.85,3.98711672e-06,9.37530544e-06,1.23441896e-05,1.58750335e-05,2.05366794e-05,2.68764387e-05
3.9,3.98293467e-06,9.30530235e-06,1.22025271e-05,1.56421723e-05,2.01744059e-05,2.63180174e-05
3.95,3.97889944e-06,9.23740792e-06,1.20655967e-05,1.54179129e-05,1.98269432e-05,2.57850497e-05
4.0,3.97500491e-06,9.17152919e-06,1.19331665e-05,1.52017901e-05,1.94934078e-05,2.52758495e-05
4.05,3.97124529e-06,9.1075786e-06,1.18050192e-05,1.49933714e-05,1.91729845e-05,2.47888753e-05
4.1,3.96761508e-06,9.04547355e-06,1.16809515e-05,1.47922543e-05,1.88649202e-05,2.4322715e-05
4.15,3.96410908e-06,8.98513607e-06,1.15607726e-05,1.45980638e-05,1.85685181e-05,2.38760731e-05
4.2,3.96072235e-06,8.92649252e-06,1.14443034e-05,1.44104499e-05,1.82831326e-05,2.34477585e-05
4.25,3.95745016e-06,8.86947328e-06,1.13313756e-05,1.42290859e-05,1.80081645e-05,2.30366745e-05
4.3,3.95428807e-06,8.81401247e-06,1.12218309e-05,1.40536661e-05,1.77430571e-05,2.26418095e-05
4.35,3.9512318e-06,8.76004773e-06,1.11155202e-05,1.38839046e-05,1.74872927e-05,2.22622295e-05
4.4,3.94827732e-06,8.70751994e-06,1.10123031e-05,1.37195331e-05,1.72403886e-05,2.18970699e-05
4.45,3.94542077e-06,8.65637308e-06,1.09120471e-05,1.35603004e-05,1.70018952e-05,2.15455301e-05
4.5,3.94265847e-06,8.60655396e-06,1.08146274e-05,1.34059703e-05,1.67713921e-05,2.12068672e-05
4.55,3.93998693e-06,8.55801211e-06,1.07199257e-05,1.32563208e-05,1.65484867e-05,2.08803912e-05
4.6,3.93740279e-06,8.51069955e-06,1.06278305e-05,1.31111433e-05,1.63328116e-05,2.05654599e-05
4.65,3.93490289e-06,8.46457068e-06,1.0538236e-05,1.2970241e-05,1.61240224e-05,2.02614757e-05
4.7,3.93248416e-06,8.41958211e-06,1.04510424e-05,1.28334289e-05,1.59217962e-05,1.99678811e-05
4.75,3.9301437e-06,8.37569253e-06,1.03661549e-05,1.27005321e-05,1.57258301e-05,1.96841555e-05
4.8,3.92787874e-06,8.33286262e-06,1.02834835e-05,1.25713857e-05,1.55358392e-05,1.94098125e-05
4.85,3.92568661e-06,8.29105488e-06,1.0202943e-05,1.24458338e-05,1.53515557e-05,1.91443971e-05
4.9,3.92356477e-06,8.25023357e-06,1.01244526e-05,1.23237291e-05,1.51727276e-05,1.88874828e-05
4.95,3.9215108e-06,8.21036458e-06,1.00479352e-05,1.22049321e-05,1.49991172e-05,1.86386701e-05
5.0,3.91952236e-06,8.17141534e-06,9.97331784e-06,1.20893108e-05,1.48305006e-05,1.83975836e-05
5.05,3.91759722e-06,8.13335477e-06,9.90053084e-06,1.19767401e-05,1.46666664e-05,1.81638711e-05
5.1,3.91573325e-06,8.09615314e-06,9.82950802e-06,1.18671014e-05,1.4507415e-05,1.7937201e-05
5.15,3.91392839e-06,8.05978204e-06,9.76018631e-06,1.17602819e-05,1.43525575e-05,1.77172614e-05
5.2,3.91218067e-06,8.02421429e-06,9.69250562e-06,1.16561749e-05,1.42019154e-05,1.75037585e-05
5.25,3.91048823e-06,7.98942389e-06,9.62640863e-06,1.15546786e-05,1.40553196e-05,1.72964153e-05
5.3,3.90884924e-06,7.95538592e-06,9.56184065e-06,1.14556966e-05,1.39126101e-05,1.70949701e-05
5.35,3.90726196e-06,7.92207654e-06,9.49874949e-06,1.13591369e-05,1.37736349e-05,1.68991762e-05
5.4,3.90572474e-06,7.88947287e-06,9.43708529e-06,1.12649119e-05,1.36382499e-05,1.67088002e-05
5.45,3.90423596e-06,7.85755301e-06,9.37680041e-06,1.11729385e-05,1.35063185e-05,1.65236212e-05
5.5,3.90279409e-06,7.82629591e-06,9.3178493e-06,1.1083137e-05,1.33777107e-05,1.63434304e-05
5.55,3.90139764e-06,7.79568142e-06,9.26018838e-06,1.09954319e-05,1.3252303e-05,1.61680297e-05
5.6,3.90004519e-06,7.76569015e-06,9.20377597e-06,1.09097507e-05,1.31299778e-05,1.59972316e-05
5.65,3.89873537e-06,7.7363035e-06,9.14857213e-06,1.08260246e-05,1.30106234e-05,1.5830858e-05
5.7,3.89746686e-06,7.70750361e-06,9.09453862e-06,1.07441876e-05,1.28941332e-05,1.566874e-05
5.75,3.89623838e-06,7.67927329e-06,9.04163879e-06,1.06641766e-05,1.27804059e-05,1.5510717e-05
5.8,3.89504872e-06,7.65159602e-06,8.98983749e-06,1.05859316e-05,1.26693445e-05,1.53566365e-05
5.85,3.8938967e-06,7.62445592e-06,8.93910103e-06,1.05093949e-05,1.25608569e-05,1.52063533e-05
5.9,3.89278117e-06,7.5978377e-06,8.88939704e-06,1.04345113e-05,1.24548549e-05,1.50597294e-05
5.95,3.89170105e-06,7.57172664e-06,8.84069448e-06,1.03612281e-05,1.23512544e-05,1.49166333e-05
6.0,3.89065528e-06,7.54610857e-06,8.79296353e-06,1.02894946e-05,1.22499749e-05,1.47769396e-05
6.05,3.88964283e-06,7.52096983e-06,8.74617553e-06,1.02192625e-05,1.21509397e-05,1.4640529e-05
6.1,3.88866274e-06,7.49629729e-06,8.70030295e-06,1.01504852e-05,1.20540752e-05,1.45072874e-05
6.15,3.88771404e-06,7.47207825e-06,8.6553193e-06,1.00831181e-05,1.1959311e-05,1.43771062e-05
6.2,3.88679582e-06,7.44830049e-06,8.61119912e-06,1.00171185e-05,1.186658e-05,1.42498816e-05
6.25,3.88590721e-06,7.42495222e-06,8.56791788e-06,9.95244525e-06,1.17758174e-05,1.41255142e-05
6.3,3.88504733e-06,7.40202205e-06,8.52545201e-06,9.88905896e-06,1.16869616e-05,1.40039093e-05
6.35,3.88421538e-06,7.37949901e-06,8.48377877e-06,9.82692171e-06,1.15999532e-05,1.38849762e-05
6.4,3.88341054e-06,7.35737249e-06,8.44287629e-06,9.76599707e-06,1.15147355e-05,1.37686281e-05
6.45,3.88263206e-06,7.33563226e-06,8.40272348e-06,9.70624999e-06,1.14312539e-05,1.36547819e-05
6.5,3.88187918e-06,7.31426842e-06,8.3633e-06,9.64764678e-06,1.13494561e-05,1.35433581e-05
6.55,3.88115118e-06,7.2932714e-06,8.32458626e-06,9.590155e-06,1.12692918e-05,1.34342805e-05
6.6,3.88044737e-06,7.27263198e-06,8.28656335e-06,9.53374345e-06,1.11907126e-05,1.33274759e-05
