vds,vb1,vb2,vb3,vb4,vb5,vb6
0.0,3.5095466e-05,0.000183812086,0.000311189033,0.000413312474,0.00049004876,0.000543939627
0.05,2.59009829e-05,0.000173852734,0.000301791327,0.000404696791,0.000482310752,0.00053709572
0.1,1.69350177e-05,0.000163922031,0.0002924222,0.000396106847,0.000474594558,0.000530269618
0.15,8.80618158e-06,0.000154020043,0.000283081537,0.000387542535,0.000466900093,0.000523461259
0.2,3.23193721e-06,0.00014414691,0.000273769219,0.00037900375,0.000459227275,0.00051667058
0.25,1.02195749e-06,0.000134302887,0.000264485132,0.000370490386,0.000451576021,0.000509897521
0.3,4.0063451e-07,0.00012448841,0.00025522916,0.000362002337,0.000443946246,0.000503142017
0.35,2.11100116e-07,0.000114704206,0.000246001189,0.000353539498,0.00043633787,0.000496404009
0.4,1.40086565e-07,0.000104951484,0.000236801106,0.000345101763,0.000428750807,0.000489683434
0.45,1.08262669e-07,9.52322823e-05,0.000227628799,0.000336689026,0.000421184977,0.000482980231
0.5,9.19152223e-08,8.55501076e-05,0.00021848416,0.000328301182,0.000413640296,0.000476294339
0.55,8.26037507e-08,7.59111746e-05,0.000209367083,0.000319938122,0.000406116683,0.000469625696
0.6,7.68602755e-08,6.63268813e-05,0.000200277468,0.00031159974,0.000398614054,0.000462974241
0.65,7.3088221e-08,5.68189335e-05,0.000191215222,0.000303285928,0.000391132328,0.000456339915
0.7,7.04828026e-08,4.74301712e-05,0.000182180261,0.000294996577,0.000383671421,0.000449722655
0.75,6.86074692e-08,3.82472384e-05,0.000173172519,0.000286731576,0.000376231251,0.000443122402
0.8,6.72106837e-08,2.94442513e-05,0.000164191954,0.000278490815,0.000368811736,0.000436539095
0.85,6.61400195e-08,2.13459556e-05,0.00015523856,0.00027027418,0.000361412792,0.000429972673
0.9,6.52990822e-08,1.4444662e-05,0.00014631239,0.000262081556,0.000354034336,0.000423423077
0.95,6.46246428e-08,9.21087879e-06,0.000137413588,0.000253912825,0.000346676285,0.000416890246
1.0,6.40738933e-08,5.73134715e-06,0.00012854244,0.000245767866,0.000339338553,0.000410374119
1.05,6.36170397e-08,3.63839496e-06,0.000119699471,0.000237646557,0.000332021056,0.000403874636
1.1,6.32328345e-08,2.43112661e-06,0.000110885586,0.000229548768,0.000324723708,0.000397391737
1.15,6.29057953e-08,1.7295129e-06,0.000102102337,0.000221474368,0.000317446423,0.000390925362
1.2,6.26244209e-08,1.30745524e-06,9.33523778e-05,0.000213423217,0.000310189112,0.000384475449
1.25,6.23800193e-08,1.04210236e-06,8.46402719e-05,0.000205395173,0.000302951688,0.000378041939
1.3,6.21659183e-08,8.67659286e-07,7.59739714e-05,0.000197390082,0.000295734059,0.000371624771
1.35,6.19769232e-08,7.48155166e-07,6.73675138e-05,0.000189407787,0.000288536133,0.000365223882
1.4,6.18089382e-08,6.63233611e-07,5.88459579e-05,0.000181448118,0.000281357816,0.000358839213
1.45,6.16586954e-08,6.00923736e-07,5.04541923e-05,0.000173510899,0.00027419901,0.000352470701
1.5,6.15235594e-08,5.5391489e-07,4.22716116e-05,0.000165595944,0.000267059616,0.000346118285
1.55,6.14013842e-08,5.17581991e-07,3.44328072e-05,0.00015770306,0.00025993953,0.000339781901
1.6,6.12904064e-08,4.88903126e-07,2.71457743e-05,0.000149832053,0.000252838646,0.000333461487
1.65,6.11891643e-08,4.65845525e-07,2.06809524e-05,0.000141982733,0.000245756851,0.000327156978
1.7,6.10964376e-08,4.47005514e-07,1.52970209e-05,0.000134154936,0.000238694027,0.000320868312
1.75,6.10111997e-08,4.31390749e-07,1.11208542e-05,0.000126348548,0.000231650051,0.000314595421
1.8,6.09325812e-08,4.18284679e-07,8.08135477e-06,0.000118563564,0.000224624791,0.00030833824
1.85,6.08598414e-08,4.07159924e-07,5.96294076e-06,0.000110800179,0.000217618105,0.0003020967
1.9,6.07923455e-08,3.97621592e-07,4.5145158e-06,0.000103058961,0.000210629844,0.000295870734
1.95,6.07295465e-08,3.8936933e-07,3.52340926e-06,9.53411372e-05,0.000203659843,0.000289660271
2.0,6.06709705e-08,3.82171424e-07,2.83588659e-06,8.7649123e-05,0.000196707923,0.000283465237
2.05,6.06162052e-08,3.7584678e-07,2.34911977e-06,7.99874297e-05,0.000189773888,0.000277285559
2.1,6.05648901e-08,3.70252181e-07,1.99647586e-06,7.23642682e-05,0.000182857523,0.00027112116
2.15,6.05167087e-08,3.65273121e-07,1.7350218e-06,6.47943127e-05,0.000175958588,0.000264971961
2.2,6.04713821e-08,3.60817133e-07,1.53686078e-06,5.73033197e-05,0.000169076813,0.000258837878
2.25,6.04286634e-08,3.56808854e-07,1.38358057e-06,4.99353736e-05,0.000162211899,0.000252718825
2.3,6.03883336e-08,3.53186335e-07,1.26279726e-06,4.27629042e-05,0.000155363507,0.000246614711
2.35,6.03501973e-08,3.49898247e-07,1.16601391e-06,3.58971577e-05,0.000148531255,0.000240525441
2.4,6.03140801e-08,3.4690175e-07,1.08728417e-06,2.94915601e-05,0.000141714717,0.000234450914
2.45,6.02798254e-08,3.44160844e-07,1.02236688e-06,2.37251849e-05,0.000134913414,0.00022839102
2.5,6.02472928e-08,3.4164508e-07,9.68182484e-07,1.87587588e-05,0.000128126819,0.000222345646
2.55,6.02163552e-08,3.39328553e-07,9.22457155e-07,1.46790569e-05,0.000121354365,0.000216314665
2.6,6.01868982e-08,3.37189099e-07,8.83485777e-07,1.1468708e-05,0.00011459547,0.000210297943
2.65,6.01588178e-08,3.35207657e-07,8.49971221e-07,9.0227806e-06,0.000107849584,0.000204295333
2.7,6.01320196e-08,3.33367751e-07,8.20913561e-07,7.19434066e-06,0.000101116292,0.000198306673
2.75,6.01064179e-08,3.31655077e-07,7.95532487e-07,5.83656109e-06,9.43954954e-05,0.000192331785
2.8,6.00819341e-08,3.30057159e-07,7.73212137e-07,4.82545631e-06,8.76877486e-05,0.00018637047
2.85,6.00584968e-08,3.2856307e-07,7.53461328e-07,4.06567251e-06,8.09948448e-05,0.000180422508
2.9,6.00360402e-08,3.27163208e-07,7.35884499e-07,3.4874971e-06,7.43208356e-05,0.000174487651
2.95,6.00145041e-08,3.25849097e-07,7.20160217e-07,3.0411952e-06,6.76737425e-05,0.000168565617
3.0,5.99938332e-08,3.24613234e-07,7.0602509e-07,2.69158029e-06,6.10683282e-05,0.000162656089
3.05,5.99739764e-08,3.23448952e-07,6.93261605e-07,2.41372434e-06,5.45303149e-05,0.000156758703
3.1,5.99548866e-08,3.22350311e-07,6.81688826e-07,2.1898412e-06,4.81021682e-05,0.000150873045
3.15,5.99365204e-08,3.21311999e-07,6.7115522e-07,2.00710896e-06,4.18496104e-05,0.000144998637
3.2,5.99188375e-08,3.20329257e-07,6.61533075e-07,1.85617336e-06,3.58660224e-05,0.000139134931
3.25,5.99018007e-08,3.19397806e-07,6.52714109e-07,1.73012329e-06,3.02694166e-05,0.000133281297
3.3,5.98853752e-08,3.18513789e-07,6.44606005e-07,1.62378751e-06,2.51865115e-05,0.000127437011
3.35,5.98695288e-08,3.17673723e-07,6.37129643e-07,1.5332482e-06,2.07244771e-05,0.000121601242
3.4,5.98542318e-08,3.16874454e-07,6.30216876e-07,1.45550146e-06,1.69417316e-05,0.000115773055
3.45,5.9839456e-08,3.16113118e-07,6.23808738e-07,1.3882177e-06,1.38340198e-05,0.0001099514
3.5,5.98251754e-08,3.15387111e-07,6.1785398e-07,1.32957074e-06,1.13427039e-05,0.000104135143
3.55,5.98113658e-08,3.14694059e-07,6.12307876e-07,1.27811436e-06,9.3773641e-06,9.83231062e-05
3.6,5.97980042e-08,3.14031795e-07,6.07131238e-07,1.23269231e-06,7.83917733e-06,9.25141791e-05
3.65,5.97850695e-08,3.13398335e-07,6.02289605e-07,1.19237187e-06,6.63672383e-06,8.67075177e-05
3.7,5.97725416e-08,3.1279186e-07,5.97752563e-07,1.15639426e-06,5.69317841e-06,8.090291e-05
3.75,5.97604018e-08,3.122107e-07,5.93493179e-07,1.12413734e-06,4.94755879e-06,7.51014093e-05
3.8,5.97486325e-08,3.1165332e-07,5.8948753e-07,1.09508725e-06,4.3530197e-06,6.93063889e-05
3.85,5.97372171e-08,3.11118304e-07,5.85714299e-07,1.06881658e-06,3.8741879e-06,6.3525228e-05
3.9,5.972614e-08,3.10604346e-07,5.82154437e-07,1.04496753e-06,3.48453961e-06,5.77718511e-05
3.95,5.97153865e-08,3.10110238e-07,5.78790874e-07,1.02323871e-06,3.16419618e-06,5.20702455e-05
4.0,5.97049429e-08,3.09634864e-07,5.75608273e-07,1.00337483e-06,2.89820443e-06,4.64586947e-05
4.05,5.96947959e-08,3.09177187e-07,5.72592822e-07,9.85158418e-07,2.67524591e-06,4.09936412e-05
4.1,5.96849334e-08,3.08736246e-07,5.69732048e-07,9.68403296e-07,2.48668678e-06,3.57508972e-05
4.15,5.96753436e-08,3.08311148e-07,5.67014665e-07,9.52949303e-07,2.32588444e-06,3.08211119e-05
4.2,5.96660156e-08,3.07901061e-07,5.64430436e-07,9.38658027e-07,2.18768252e-06,2.62975208e-05
4.25,5.96569388e-08,3.07505211e-07,5.61970056e-07,9.25409334e-07,2.06804226e-06,2.22579787e-05
4.3,5.96481033e-08,3.07122876e-07,5.59625053e-07,9.13098524e-07,1.96377215e-06,1.87480572e-05
4.35,5.96394999e-08,3.0675338e-07,5.57387693e-07,9.01633998e-07,1.87232842e-06,1.57729669e-05
4.4,5.96311196e-08,3.06396092e-07,5.55250907e-07,8.90935319e-07,1.79166673e-06,1.33012688e-05
4.45,5.96229539e-08,3.06050423e-07,5.5320822e-07,8.80931607e-07,1.720131e-06,1.12768334e-05
4.5,5.96149949e-08,3.05715819e-07,5.51253693e-07,8.71560193e-07,1.65636956e-06,9.63265705e-06
4.55,5.96072348e-08,3.0539176e-07,5.49381865e-07,8.6276549e-07,1.5992712e-06,8.30179e-06
4.6,5.95996664e-08,3.05077761e-07,5.47587711e-07,8.5449805e-07,1.54791619e-06,7.22381821e-06
4.65,5.95922829e-08,3.04773364e-07,5.45866598e-07,8.4671375e-07,1.50153833e-06,6.34754821e-06
4.7,5.95850776e-08,3.04478137e-07,5.44214249e-07,8.39373117e-07,1.45949542e-06,5.63126458e-06
4.75,5.95780443e-08,3.04191676e-07,5.42626707e-07,8.32440741e-07,1.42124609e-06,5.04176878e-06
4.8,5.9571177e-08,3.03913598e-07,5.4110031e-07,8.25884779e-07,1.38633142e-06,4.55298706e-06
4.85,5.95644699e-08,3.03643544e-07,5.39631662e-07,8.19676523e-07,1.3543604e-06,4.14456731e-06
4.9,5.95579177e-08,3.03381174e-07,5.3821761e-07,8.13790035e-07,1.32499824e-06,3.80064591e-06
4.95,5.95515151e-08,3.03126167e-07,5.36855224e-07,8.08201827e-07,1.29795692e-06,3.50883582e-06
5.0,5.95452571e-08,3.02878219e-07,5.35541776e-07,8.02890583e-07,1.27298757e-06,3.25942714e-06
5.05,5.9539139e-08,3.02637043e-07,5.34274722e-07,7.97836918e-07,1.24987425e-06,3.04476872e-06
5.1,5.95331562e-08,3.02402367e-07,5.33051694e-07,7.93023172e-07,1.22842884e-06,2.8587951e-06
5.15,5.95273045e-08,3.02173934e-07,5.31870475e-07,7.88433222e-07,1.20848684e-06,2.69666648e-06
5.2,5.95215795e-08,3.019515e-07,5.30728995e-07,7.84052323e-07,1.18990387e-06,2.55449507e-06
5.25,5.95159773e-08,3.01734833e-07,5.29625317e-07,7.79866967e-07,1.17255278e-06,2.42913661e-06
5.3,5.95104942e-08,3.01523713e-07,5.28557624e-07,7.7586476e-07,1.15632123e-06,2.31803109e-06
5.35,5.95051263e-08,3.01317931e-07,5.27524215e-07,7.72034307e-07,1.14110965e-06,2.21908052e-06
5.4,5.94998703e-08,3.01117289e-07,5.26523491e-07,7.68365118e-07,1.12682953e-06,2.13055457e-06
5.45,5.94947227e-08,3.00921598e-07,5.2555395e-07,7.64847524e-07,1.11340195e-06,2.0510174e-06
5.5,5.94896802e-08,3.00730677e-07,5.2461418e-07,7.61472594e-07,1.10075637e-06,1.97927046e-06
5.55,5.94847398e-08,3.00544357e-07,5.23702852e-07,7.5823207e-07,1.08882956e-06,1.91430764e-06
5.6,5.94798984e-08,3.00362472e-07,5.22818714e-07,7.55118308e-07,1.0775647e-06,1.85527982e-06
5.65,5.94751532e-08,3.00184869e-07,5.21960585e-07,7.52124219e-07,1.06691064e-06,1.80146662e-06
5.7,5.94705014e-08,3.00011398e-07,5.21127351e-07,7.49243223e-07,1.05682117e-06,1.75225394e-06
5.75,5.94659403e-08,2.99841918e-07,5.20317961e-07,7.46469203e-07,1.0472545e-06,1.70711575e-06
5.8,5.94614674e-08,2.99676294e-07,5.1953142e-07,7.43796467e-07,1.03817274e-06,1.66559951e-06
5.85,5.94570802e-08,2.99514396e-07,5.18766788e-07,7.41219712e-07,1.02954145e-06,1.62731416e-06
5.9,5.94527764e-08,2.99356102e-07,5.18023174e-07,7.38733991e-07,1.0213293e-06,1.59192049e-06
5.95,5.94485535e-08,2.99201292e-07,5.17299736e-07,7.36334687e-07,1.0135077e-06,1.55912304e-06
6.0,5.94444095e-08,2.99049853e-07,5.16595676e-07,7.34017481e-07,1.00605055e-06,1.52866355e-06
6.05,5.94403422e-08,2.98901678e-07,5.15910235e-07,7.31778334e-07,9.9893392e-07,1.50031546e-06
6.1,5.94363495e-08,2.98756663e-07,5.15242693e-07,7.29613461e-07,9.92135911e-07,1.47387935e-06
6.15,5.94324295e-08,2.98614708e-07,5.1459237e-07,7.27519316e-07,9.85636393e-07,1.44917914e-06
6.2,5.94285803e-08,2.98475718e-07,5.13958614e-07,7.25492569e-07,9.79416854e-07,1.42605884e-06
6.25,5.94247999e-08,2.98339602e-07,5.1334081e-07,7.23530092e-07,9.7346024e-07,1.4043799e-06
6.3,5.94210867e-08,2.98206272e-07,5.1273837e-07,7.21628947e-07,9.67750822e-07,1.38401888e-06
6.35,5.94174389e-08,2.98075645e-07,5.12150736e-07,7.19786367e-07,9.62274064e-07,1.3648655e-06
6.4,5.94138548e-08,2.97947638e-07,5.11577374e-07,7.17999745e-07,9.57016523e-07,1.346821e-06
6.45,5.94103328e-08,2.97822176e-07,5.11017778e-07,7.16266628e-07,9.51965743e-07,1.32979672e-06
6.5,5.94068715e-08,2.97699182e-07,5.10471463e-07,7.14584697e-07,9.47110174e-07,1.31371286e-06
6.55,5.94034692e-08,2.97578586e-07,5.09937969e-07,7.12951768e-07,9.42439086e-07,1.29849744e-06
6.6,5.94001245e-08,2.97460318e-07,5.09416854e-07,7.11365774e-07,9.37942506e-07,1.28408538e-06
