vds,vb1,vb2,vb3,vb4,vb5,vb6
0.0,0.000681892372,0.00304653308,0.00476149359,0.00605150864,0.00697698125,0.00759893156
0.05,0.000450950892,0.00276170524,0.00444557853,0.00572407164,0.00665517326,0.00729437847
0.1,0.000248761416,0.00249129636,0.00414532755,0.00541186587,0.00634709989,0.00700160567
0.15,0.000117701478,0.00223432776,0.00385968845,0.00511394,0.00605197863,0.00672000698
0.2,6.89259335e-05,0.00198987056,0.00358765507,0.00482938637,0.00576906345,0.00644900416
0.25,5.19238831e-05,0.00175704627,0.00332826095,0.00455733047,0.00549763522,0.00618803987
0.3,4.36747201e-05,0.00153501112,0.00308058545,0.00429693093,0.00523699815,0.00593657378
0.35,3.86744092e-05,0.00132288992,0.00284376036,0.00404738631,0.00498648158,0.00569408177
0.4,3.52702226e-05,0.00111966365,0.00261696459,0.00380794366,0.00474544479,0.00546005746
0.45,3.27904473e-05,0.000924299587,0.002399395,0.00357790423,0.004513283,0.00523401521
0.5,3.0901554e-05,0.000737600334,0.00219019793,0.0033566231,0.00428943249,0.0050154937
0.55,2.94157139e-05,0.000567609125,0.00198833678,0.0031434995,0.00407337375,0.00480405928
0.6,2.82178866e-05,0.000429462182,0.00179235585,0.00293795438,0.00386463146,0.00459930859
0.65,2.72332571e-05,0.00032986265,0.00160001048,0.00273938998,0.00366277067,0.00440087004
0.7,2.64109132e-05,0.000261940484,0.00140791108,0.00254712179,0.00346738809,0.00420840379
0.75,2.57149475e-05,0.000215440636,0.00121211128,0.00236026595,0.0032780975,0.00402160012
0.8,2.51192867e-05,0.00018263242,0.00101198514,0.00217755574,0.00309450684,0.00384017587
0.85,2.4604533e-05,0.000158643047,0.000817151936,0.00199705749,0.00291618337,0.00366386865
0.9,2.41559543e-05,0.000140506902,0.000645990687,0.00181580828,0.00274260006,0.00349242842
0.95,2.37621614e-05,0.000126392793,0.000510851131,0.00162965242,0.00257305189,0.00332560545
1.0,2.34142118e-05,0.00011513543,0.000410852411,0.00143426598,0.00240652515,0.00316313314
1.05,2.31049876e-05,0.000105968199,0.000338275012,0.00122903945,0.00224149915,0.00300470324
1.1,2.28287539e-05,9.83704343e-05,0.00028515541,0.00102273826,0.00207567738,0.00284992908
1.15,2.25808398e-05,9.19780876e-05,0.00024547653,0.000832646138,0.00190573914,0.00269828989
1.2,2.23574033e-05,8.65299303e-05,0.000215128156,0.000673408507,0.00172749611,0.00254904612
1.25,2.21552566e-05,8.18341481e-05,0.000191375015,0.000548840696,0.00153737617,0.00240111217
1.3,2.19717325e-05,7.77469946e-05,0.000172388987,0.000454488508,0.00133611784,0.00225287688
1.35,2.18045837e-05,7.41587768e-05,0.000156927799,0.000383393795,0.00113269899,0.00210199133
1.4,2.16519033e-05,7.09844264e-05,0.000144129419,0.000329296203,0.000942495123,0.00194524635
1.45,2.15120631e-05,6.81570128e-05,0.000133382507,0.000287453108,0.000778676859,0.00177890921
1.5,2.13836653e-05,6.56231891e-05,0.000124244315,0.000254491755,0.00064600527,0.00160020584
1.55,2.12655028e-05,6.33399347e-05,0.000116387841,0.000228056635,0.000542074151,0.00141030743
1.6,2.11565286e-05,6.12721877e-05,0.000109567176,0.000206498885,0.000461498956,0.00121701632
1.65,2.10558299e-05,5.93910954e-05,0.000103594329,0.000188650883,0.00039879325,0.00103317757
1.7,2.09626077e-05,5.76727055e-05,9.83234172e-05,0.000173672938,0.000349449694,0.000870460097
1.75,2.08761596e-05,5.60969729e-05,9.36396892e-05,0.000160951044,0.000310069009,0.00073439343
1.8,2.07958659e-05,5.46469979e-05,8.94517546e-05,0.000150028717,0.000278170782,0.000624463355
1.85,2.07211779e-05,5.33084349e-05,8.56860039e-05,0.000140561154,0.000251959968,0.000536946219
1.9,2.06516079e-05,5.20690296e-05,8.22825352e-05,0.000132283998,0.000230132442,0.000467358885
1.95,2.05867212e-05,5.09182526e-05,7.91921397e-05,0.000124991749,0.000211731409,0.000411664665
2.0,2.05261294e-05,4.98470074e-05,7.63740412e-05,0.000118522602,0.000196046094,0.000366622907
2.05,2.04694838e-05,4.88473952e-05,7.37941806e-05,0.00011274765,0.000182541359,0.000329758612
2.1,2.04164713e-05,4.79125253e-05,7.14238994e-05,0.000107563076,0.000170808837,0.000299217994
2.15,2.03668095e-05,4.70363592e-05,6.92389185e-05,0.000102884434,0.00016053282,0.0002736181
2.2,2.03202432e-05,4.62135834e-05,6.7218539e-05,9.86423961e-05,0.000151466197,0.000251923003
2.25,2.02765413e-05,4.54395041e-05,6.53450104e-05,9.47795655e-05,0.000143413286,0.000233350312
2.3,2.02354939e-05,4.47099598e-05,6.3603027e-05,9.12480458e-05,0.000136217446,0.000217303042
2.35,2.01969103e-05,4.40212479e-05,6.19793237e-05,8.80075783e-05,0.000129752015,0.000203320636
2.4,2.01606164e-05,4.33700633e-05,6.0462349e-05,8.50240951e-05,0.000123913611,0.000191043805
2.45,2.01264534e-05,4.27534469e-05,5.90419988e-05,8.22685851e-05,0.000118617114,0.000180189196
2.5,2.00942758e-05,4.21687413e-05,5.77093972e-05,7.97161993e-05,0.000113791876,0.000170530996
2.55,2.00639503e-05,4.16135536e-05,5.64567168e-05,7.73455367e-05,0.000109378817,0.000161887461
2.6,2.00353545e-05,4.1085723e-05,5.52770291e-05,7.5138072e-05,0.000105328184,0.000154110949
2.65,2.00083757e-05,4.05832939e-05,5.41641795e-05,7.3077692e-05,0.000101597808,0.000147080464
2.7,1.99829103e-05,4.0104492e-05,5.31126826e-05,7.11503187e-05,9.81517287e-05,0.000140696042
2.75,1.99588624e-05,3.96477035e-05,5.21176344e-05,6.93436002e-05,9.49591059e-05,0.000134874456
2.8,1.99361436e-05,3.92114579e-05,5.11746372e-05,6.7646656e-05,9.19933512e-05,0.000129545919
2.85,1.9914672e-05,3.8794412e-05,5.02797364e-05,6.60498656e-05,8.92314266e-05,0.000124651524
2.9,1.98943716e-05,3.83953367e-05,4.94293662e-05,6.45446926e-05,8.66532773e-05,0.000120141237
2.95,1.98751721e-05,3.80131054e-05,4.86203032e-05,6.31235371e-05,8.42413685e-05,0.000115972308
3.0,1.98570079e-05,3.76466829e-05,4.78496264e-05,6.17796112e-05,8.19803052e-05,0.000112108015
3.05,1.98398182e-05,3.7295117e-05,4.71146824e-05,6.05068347e-05,7.98565187e-05,0.000108516647
3.1,1.98235462e-05,3.695753e-05,4.64130562e-05,5.92997449e-05,7.78580053e-05,0.000105170693
3.15,1.98081389e-05,3.66331117e-05,4.57425444e-05,5.81534212e-05,7.5974109e-05,0.00010204617
3.2,1.97935469e-05,3.6321113e-05,4.5101133e-05,5.70634195e-05,7.41953392e-05,9.91220891e-05
3.25,1.97797239e-05,3.60208401e-05,4.44869774e-05,5.60257162e-05,7.25132164e-05,9.63800011e-05
3.3,1.97666267e-05,3.573165e-05,4.38983852e-05,5.503666e-05,7.09201421e-05,9.38036306e-05
3.35,1.97542148e-05,3.54529453e-05,4.33338006e-05,5.409293e-05,6.94092882e-05,9.13785668e-05
3.4,1.974245e-05,3.51841708e-05,4.27917909e-05,5.31914991e-05,6.79745024e-05,8.90920068e-05
3.45,1.97312966e-05,3.49248094e-05,4.22710351e-05,5.23296027e-05,6.66102266e-05,8.6932539e-05
3.5,1.97207211e-05,3.46743792e-05,4.17703126e-05,5.15047106e-05,6.53114282e-05,8.4889961e-05
3.55,1.97106918e-05,3.44324305e-05,4.12884942e-05,5.07145031e-05,6.40735391e-05,8.29551245e-05
3.6,1.97011789e-05,3.4198543e-05,4.08245339e-05,4.99568494e-05,6.28924036e-05,8.11198038e-05
3.65,1.96921544e-05,3.39723236e-05,4.03774609e-05,4.92297889e-05,6.17642337e-05,7.93765831e-05
3.7,1.96835917e-05,3.37534043e-05,3.99463734e-05,4.85315149e-05,6.0685569e-05,7.77187602e-05
3.75,1.96754658e-05,3.35414399e-05,3.95304325e-05,4.78603593e-05,5.96532424e-05,7.61402626e-05
3.8,1.9667753e-05,3.33361067e-05,3.91288568e-05,4.721478e-05,5.86643499e-05,7.46355766e-05
3.85,1.96604309e-05,3.31371006e-05,3.87409173e-05,4.65933491e-05,5.77162236e-05,7.3199684e-05
3.9,1.96534781e-05,3.29441357e-05,3.83659336e-05,4.59947426e-05,5.68064089e-05,7.18280086e-05
3.95,1.96468747e-05,3.27569428e-05,3.80032695e-05,4.54177313e-05,5.59326432e-05,7.05163687e-05
4.0,1.96406013e-05,3.25752686e-05,3.76523298e-05,4.48611723e-05,5.50928378e-05,6.92609356e-05
4.05,1.96346398e-05,3.23988743e-05,3.73125568e-05,4.43240014e-05,5.42850614e-05,6.80581974e-05
4.1,1.9628973e-05,3.22275342e-05,3.69834274e-05,4.38052271e-05,5.35075259e-05,6.69049272e-05
4.15,1.96235842e-05,3.20610357e-05,3.66644508e-05,4.33039238e-05,5.27585731e-05,6.57981546e-05
4.2,1.9618458e-05,3.18991775e-05,3.63551655e-05,4.28192268e-05,5.20366633e-05,6.47351412e-05
4.25,1.96135792e-05,3.17417694e-05,3.60551378e-05,4.23503274e-05,5.1340365e-05,6.37133583e-05
4.3,1.96089336e-05,3.15886314e-05,3.57639591e-05,4.18964684e-05,5.06683456e-05,6.27304673e-05
4.35,1.96045076e-05,3.14395928e-05,3.54812446e-05,4.14569399e-05,5.00193629e-05,6.17843022e-05
4.4,1.9600288e-05,3.12944921e-05,3.52066313e-05,4.1031076e-05,4.93922576e-05,6.08728541e-05
4.45,1.95962624e-05,3.11531758e-05,3.49397767e-05,4.06182511e-05,4.87859466e-05,5.99942574e-05
4.5,1.95924188e-05,3.10154985e-05,3.46803573e-05,4.02178774e-05,4.81994171e-05,5.91467771e-05
4.55,1.95887456e-05,3.08813218e-05,3.44280671e-05,3.98294014e-05,4.76317205e-05,5.83287977e-05
4.6,1.95852319e-05,3.07505144e-05,3.41826167e-05,3.9452302e-05,4.70819676e-05,5.75388131e-05
4.65,1.95818671e-05,3.06229514e-05,3.39437321e-05,3.90860881e-05,4.65493243e-05,5.67754175e-05
4.7,1.95786409e-05,3.04985137e-05,3.37111537e-05,3.87302962e-05,4.60330071e-05,5.60372974e-05
4.75,1.95755435e-05,3.03770883e-05,3.34846354e-05,3.83844888e-05,4.55322796e-05,5.5323224e-05
4.8,1.95725655e-05,3.02585672e-05,3.32639436e-05,3.80482522e-05,4.50464485e-05,5.46320463e-05
4.85,1.95696977e-05,3.01428475e-05,3.30488565e-05,3.77211955e-05,4.45748614e-05,5.39626857e-05
4.9,1.95669314e-05,3.00298313e-05,3.28391635e-05,3.74029486e-05,4.41169028e-05,5.33141297e-05
4.95,1.95642579e-05,2.99194249e-05,3.26346643e-05,3.7093161e-05,4.36719923e-05,5.26854274e-05
5.0,1.95616692e-05,2.9811539e-05,3.24351684e-05,3.67915003e-05,4.32395818e-05,5.20756848e-05
5.05,1.95591571e-05,2.97060881e-05,3.22404944e-05,3.64976515e-05,4.28191536e-05,5.14840604e-05
5.1,1.9556714e-05,2.96029906e-05,3.20504696e-05,3.62113155e-05,4.24102176e-05,5.09097618e-05
5.15,1.95543324e-05,2.95021685e-05,3.18649293e-05,3.59322083e-05,4.20123106e-05,5.03520418e-05
5.2,1.95520049e-05,2.94035472e-05,3.16837167e-05,3.56600597e-05,4.16249933e-05,4.98101954e-05
5.25,1.95497246e-05,2.93070551e-05,3.1506682e-05,3.53946133e-05,4.12478498e-05,4.9283557e-05
5.3,1.95474845e-05,2.92126238e-05,3.13336821e-05,3.51356246e-05,4.08804853e-05,4.87714975e-05
5.35,1.95452778e-05,2.91201877e-05,3.11645808e-05,3.4882861e-05,4.05225254e-05,4.82734219e-05
5.4,1.95430982e-05,2.9029684e-05,3.09992473e-05,3.46361011e-05,4.01736142e-05,4.77887669e-05
5.45,1.95409392e-05,2.89410523e-05,3.08375572e-05,3.43951334e-05,3.98334138e-05,4.73169993e-05
5.5,1.95387945e-05,2.88542349e-05,3.06793909e-05,3.41597567e-05,3.95016025e-05,4.68576133e-05
5.55,1.95366581e-05,2.87691762e-05,3.05246345e-05,3.39297785e-05,3.91778746e-05,4.64101293e-05
5.6,1.9534524e-05,2.86858229e-05,3.03731785e-05,3.37050155e-05,3.88619387e-05,4.59740922e-05
5.65,1.95323865e-05,2.86041238e-05,3.02249183e-05,3.34852921e-05,3.85535174e-05,4.55490695e-05
5.7,1.95302397e-05,2.85240298e-05,3.00797536e-05,3.32704407e-05,3.82523462e-05,4.51346503e-05
5.75,1.9528078e-05,2.84454936e-05,2.99375881e-05,3.30603012e-05,3.79581728e-05,4.47304437e-05
5.8,1.95258961e-05,2.83684696e-05,2.97983296e-05,3.28547202e-05,3.76707565e-05,4.4336078e-05
5.85,1.95236884e-05,2.82929141e-05,2.96618894e-05,3.26535507e-05,3.73898674e-05,4.39511989e-05
5.9,1.95214496e-05,2.8218785e-05,2.95281828e-05,3.24566524e-05,3.7115286e-05,4.3575469e-05
5.95,1.95191745e-05,2.81460419e-05,2.93971279e-05,3.22638905e-05,3.68468025e-05,4.32085668e-05
6.0,1.95168579e-05,2.80746455e-05,2.92686464e-05,3.2075136e-05,3.65842161e-05,4.28501855e-05
6.05,1.95144947e-05,2.80045584e-05,2.91426629e-05,3.18902649e-05,3.63273348e-05,4.25000323e-05
6.1,1.951208e-05,2.79357442e-05,2.9019105e-05,3.17091587e-05,3.6075975e-05,4.21578276e-05
6.15,1.95096087e-05,2.78681681e-05,2.88979029e-05,3.15317032e-05,3.58299605e-05,4.18233046e-05
6.2,1.95070759e-05,2.78017963e-05,2.87789895e-05,3.13577891e-05,3.55891229e-05,4.14962078e-05
6.25,1.95044769e-05,2.77365964e-05,2.86623003e-05,3.11873112e-05,3.53533005e-05,4.11762932e-05
6.3,1.95018067e-05,2.76725369e-05,2.85477731e-05,3.10201686e-05,3.51223383e-05,4.08633272e-05
6.35,1.94990607e-05,2.76095876e-05,2.84353481e-05,3.08562641e-05,3.48960877e-05,4.05570863e-05
6.4,1.94962341e-05,2.75477192e-05,2.83249675e-05,3.06955043e-05,3.4674406e-05,4.02573563e-05
6.45,1.94933223e-05,2.74869035e-05,2.82165757e-05,3.05377994e-05,3.44571563e-05,3.99639323e-05
6.5,1.94903205e-05,2.74271133e-05,2.81101191e-05,3.0383063e-05,3.42442068e-05,3.96766174e-05
6.55,1.94872243e-05,2.7368322e-05,2.80055459e-05,3.02312118e-05,3.40354312e-05,3.93952231e-05
6.6,1.9484029e-05,2.73105044e-05,2.79028063e-05,3.00821656e-05,3.3830708e-05,3.91195687e-05
