vds,vb1,vb2,vb3,vb4,vb5,vb6
0.0,2.54405453e-05,8.3846772e-05,0.000128286986,0.000162881782,0.00018902159,0.000208016129
0.05,1.97457386e-05,7.73171643e-05,0.000121183773,0.000155554541,0.000181780447,0.000201080559
0.1,1.43192341e-05,7.1039269e-05,0.000114352725,0.000148493475,0.000174783274,0.000194359206
0.15,9.32937824e-06,6.50000312e-05,0.000107779695,0.000141685564,0.00016801906,0.00018784324
0.2,5.33701121e-06,5.91867695e-05,0.000101450839,0.000135118111,0.000161477102,0.000181524093
0.25,3.05454864e-06,5.3587292e-05,9.53524927e-05,0.000128778554,0.000155146838,0.000175393336
0.3,2.0604279e-06,4.81901046e-05,8.94712839e-05,0.000122654435,0.000149017763,0.000169442599
0.35,1.59011356e-06,4.29843917e-05,8.37943635e-05,0.0001167335,0.000143079433,0.000163663538
0.4,1.32157916e-06,3.79594909e-05,7.83096423e-05,0.000111003884,0.000137321547,0.000158047854
0.45,1.14661561e-06,3.31037331e-05,7.30059082e-05,0.000105454323,0.000131734068,0.000152587341
0.5,1.02281558e-06,2.84034178e-05,6.78727319e-05,0.000100074338,0.000126307367,0.000147273968
0.55,9.30308526e-07,2.38476419e-05,6.29000617e-05,9.48543653e-05,0.000121032368,0.000142099964
0.6,8.58459196e-07,1.9461123e-05,5.80773755e-05,8.97857894e-05,0.000115900664,0.000137057914
0.65,8.01012654e-07,1.53909515e-05,5.33921585e-05,8.48608677e-05,0.000110904607,0.000132140844
0.7,7.54028983e-07,1.19311638e-05,4.88273139e-05,8.00725189e-05,0.000106037347,0.000127342289
0.75,7.14894248e-07,9.28833542e-06,4.43569633e-05,7.54139431e-05,0.000101292831,0.000122656351
0.8,6.81802175e-07,7.40131599e-06,3.99405349e-05,7.08780139e-05,9.66657374e-05,0.000118077729
0.85,6.5346287e-07,6.07308266e-06,3.55183061e-05,6.64563404e-05,9.21513557e-05,0.000113601727
0.9,6.289298e-07,5.1219123e-06,3.10231006e-05,6.21378138e-05,8.77453938e-05,0.000109224236
0.95,6.07492292e-07,4.42111994e-06,2.64412299e-05,5.79063418e-05,8.34437017e-05,0.000104941695
1.0,5.88606191e-07,3.88931557e-06,2.19244684e-05,5.37373622e-05,7.92418803e-05,0.000100751016
1.05,5.71847696e-07,3.47470783e-06,1.78041834e-05,4.95928457e-05,7.51347274e-05,9.6649486e-05
1.1,5.56881787e-07,3.14376649e-06,1.43775586e-05,4.54156686e-05,7.11154358e-05,9.2634634e-05
1.15,5.43440119e-07,2.87420921e-06,1.17167046e-05,4.11286118e-05,6.7174407e-05,8.87040532e-05
1.2,5.31305213e-07,2.65081122e-06,9.71452956e-06,3.66534994e-05,6.32974721e-05,8.48551707e-05
1.25,5.20298948e-07,2.4628893e-06,8.21289397e-06,3.19740907e-05,5.94632449e-05,8.10849371e-05
1.3,5.1027405e-07,2.30276139e-06,7.07314217e-06,2.72298928e-05,5.56393809e-05,7.73894005e-05
1.35,5.01107692e-07,2.16478002e-06,6.19223965e-06,2.27285989e-05,5.17780425e-05,7.37631044e-05
1.4,4.9269663e-07,2.0447104e-06,5.49796435e-06,1.87885465e-05,4.7812806e-05,7.01982176e-05
1.45,4.84953454e-07,1.93932015e-06,4.94039996e-06,1.55630001e-05,4.3664117e-05,6.66832589e-05
1.5,4.77803668e-07,1.84610255e-06,4.48485649e-06,1.30250411e-05,3.92676034e-05,6.32012403e-05
1.55,4.71183396e-07,1.76308562e-06,4.10688619e-06,1.10574127e-05,3.46363839e-05,5.97270543e-05
1.6,4.65037554e-07,1.68869795e-06,3.78895998e-06,9.52957097e-06,2.9927502e-05,5.62241384e-05
1.65,4.59318395e-07,1.62167271e-06,3.51828142e-06,8.33097033e-06,2.54257364e-05,5.26412403e-05
1.7,4.53984326e-07,1.56097776e-06,3.28534363e-06,7.3773692e-06,2.14123933e-05,4.89122145e-05
1.75,4.48998953e-07,1.50576402e-06,3.08296556e-06,6.60717667e-06,1.80370839e-05,4.4965794e-05
1.8,4.44330291e-07,1.45532687e-06,2.90563877e-06,5.9758974e-06,1.53018725e-05,4.07556662e-05
1.85,4.39950122e-07,1.40907684e-06,2.74907743e-06,5.45131011e-06,1.31229046e-05,3.63127011e-05
1.9,4.35833456e-07,1.3665171e-06,2.60990322e-06,5.00986348e-06,1.13918977e-05,3.17882057e-05
1.95,4.31958083e-07,1.32722606e-06,2.48542111e-06,4.63412735e-06,1.00088757e-05,2.74294132e-05
2.0,4.28304198e-07,1.29084368e-06,2.37345756e-06,4.31102467e-06,8.89270179e-06,2.3478583e-05
2.05,4.24854088e-07,1.25706071e-06,2.27224181e-06,4.03060832e-06,7.98113647e-06,2.00780835e-05
2.1,4.21591859e-07,1.22561002e-06,2.18031794e-06,3.78521021e-06,7.22751053e-06,1.72520986e-05
2.15,4.18503213e-07,1.19625976e-06,2.0964786e-06,3.56884363e-06,6.59702864e-06,1.4946679e-05
2.2,4.15575252e-07,1.16880768e-06,2.01971471e-06,3.37677856e-06,6.06366484e-06,1.30770773e-05
2.25,4.12796311e-07,1.14307659e-06,1.94917676e-06,3.20523613e-06,5.60779965e-06,1.15575677e-05
2.3,4.10155816e-07,1.11891063e-06,1.88414474e-06,3.05116604e-06,5.21449339e-06,1.03141069e-05
2.35,4.07644158e-07,1.0961721e-06,1.82400457e-06,2.91208242e-06,4.87224412e-06,9.28717911e-06
2.4,4.05252588e-07,1.07473899e-06,1.76822948e-06,2.78594132e-06,4.57209693e-06,8.43050898e-06
2.45,4.02973121e-07,1.05450272e-06,1.71636511e-06,2.67104826e-06,4.30700294e-06,7.70859211e-06
2.5,4.00798455e-07,1.0353664e-06,1.6680176e-06,2.56598773e-06,4.07135478e-06,7.0942563e-06
2.55,3.98721904e-07,1.01724329e-06,1.62284389e-06,2.4695688e-06,3.86064696e-06,6.56663432e-06
2.6,3.96737328e-07,1.00005551e-06,1.58054384e-06,2.38078289e-06,3.671225e-06,6.10959344e-06
2.65,3.94839083e-07,9.83732945e-07,1.54085376e-06,2.29877052e-06,3.50009844e-06,5.7105565e-06
2.7,3.93021973e-07,9.68212272e-07,1.50354106e-06,2.22279509e-06,3.34479979e-06,5.35962864e-06
2.75,3.91281202e-07,9.53436198e-07,1.46839985e-06,2.15222189e-06,3.20327734e-06,5.04895239e-06
2.8,3.89612341e-07,9.39352739e-07,1.43524721e-06,2.08650125e-06,3.07381268e-06,4.77223043e-06
2.85,3.88011291e-07,9.25914628e-07,1.40392009e-06,2.02515489e-06,2.95495685e-06,4.52437063e-06
2.9,3.86474256e-07,9.13078786e-07,1.37427269e-06,1.96776477e-06,2.84548031e-06,4.3012201e-06
2.95,3.84997712e-07,9.00805876e-07,1.34617429e-06,1.91396405e-06,2.74433359e-06,4.09936439e-06
3.0,3.83578384e-07,8.89059903e-07,1.3195073e-06,1.86342944e-06,2.65061589e-06,3.9159746e-06
3.05,3.82213228e-07,8.77807868e-07,1.29416569e-06,1.81587506e-06,2.56355002e-06,3.74868999e-06
3.1,3.80899406e-07,8.6701946e-07,1.2700536e-06,1.7710472e-06,2.48246216e-06,3.59552709e-06
3.15,3.79634273e-07,8.56666794e-07,1.24708417e-06,1.7287199e-06,2.40676542e-06,3.45480875e-06
3.2,3.78415358e-07,8.46724168e-07,1.22517848e-06,1.68869134e-06,2.33594642e-06,3.32510826e-06
3.25,3.77240354e-07,8.37167859e-07,1.20426471e-06,1.65078072e-06,2.26955423e-06,3.20520516e-06
3.3,3.76107099e-07,8.27975932e-07,1.18427731e-06,1.61482555e-06,2.20719127e-06,3.09404983e-06
3.35,3.7501357e-07,8.19128077e-07,1.16515638e-06,1.58067948e-06,2.1485057e-06,2.99073505e-06
3.4,3.73957869e-07,8.1060546e-07,1.14684705e-06,1.54821029e-06,2.0931851e-06,2.89447303e-06
3.45,3.72938217e-07,8.02390596e-07,1.12929896e-06,1.51729828e-06,2.04095114e-06,2.80457661e-06
3.5,3.71952939e-07,7.94467224e-07,1.11246583e-06,1.4878348e-06,1.9915551e-06,2.72044389e-06
3.55,3.71000463e-07,7.86820207e-07,1.09630504e-06,1.45972103e-06,1.94477404e-06,2.64154561e-06
3.6,3.70079308e-07,7.79435435e-07,1.08077727e-06,1.43286689e-06,1.90040761e-06,2.56741458e-06
3.65,3.69188078e-07,7.72299738e-07,1.06584622e-06,1.4071901e-06,1.85827524e-06,2.49763698e-06
3.7,3.6832546e-07,7.65400813e-07,1.05147829e-06,1.38261535e-06,1.81821379e-06,2.43184499e-06
3.75,3.67490212e-07,7.58727148e-07,1.03764233e-06,1.3590736e-06,1.78007553e-06,2.36971068e-06
3.8,3.66681162e-07,7.52267967e-07,1.02430948e-06,1.33650142e-06,1.74372633e-06,2.31094076e-06
3.85,3.65897204e-07,7.46013166e-07,1.01145288e-06,1.31484045e-06,1.70904418e-06,2.25527219e-06
3.9,3.65137289e-07,7.39953264e-07,9.99047582e-07,1.2940369e-06,1.67591786e-06,2.20246838e-06
3.95,3.64400427e-07,7.34079355e-07,9.87070316e-07,1.27404111e-06,1.64424572e-06,2.15231601e-06
4.0,3.63685679e-07,7.28383067e-07,9.75499392e-07,1.25480717e-06,1.61393478e-06,2.10462224e-06
4.05,3.62992155e-07,7.22856521e-07,9.64314557e-07,1.23629257e-06,1.58489972e-06,2.05921233e-06
4.1,3.6231901e-07,7.17492294e-07,9.53496877e-07,1.21845789e-06,1.55706221e-06,2.01592758e-06
4.15,3.61665445e-07,7.12283391e-07,9.4302863e-07,1.20126652e-06,1.53035012e-06,1.97462355e-06
4.2,3.61030698e-07,7.07223208e-07,9.32893217e-07,1.18468444e-06,1.50469702e-06,1.93516851e-06
4.25,3.60414046e-07,7.02305513e-07,9.23075069e-07,1.16867996e-06,1.48004152e-06,1.89744206e-06
4.3,3.59814803e-07,6.97524414e-07,9.1355957e-07,1.15322355e-06,1.45632692e-06,1.86133397e-06
4.35,3.59232313e-07,6.92874337e-07,9.04332987e-07,1.13828765e-06,1.43350066e-06,1.82674311e-06
4.4,3.58665955e-07,6.88350009e-07,8.95382402e-07,1.12384651e-06,1.41151405e-06,1.79357655e-06
4.45,3.58115135e-07,6.83946433e-07,8.86695654e-07,1.10987605e-06,1.39032186e-06,1.76174877e-06
4.5,3.57579288e-07,6.79658873e-07,8.78261285e-07,1.09635372e-06,1.36988201e-06,1.7311809e-06
4.55,3.57057876e-07,6.75482836e-07,8.70068488e-07,1.08325837e-06,1.35015537e-06,1.7018001e-06
4.6,3.56550383e-07,6.71414059e-07,8.62107064e-07,1.07057017e-06,1.33110544e-06,1.67353903e-06
4.65,3.5605632e-07,6.67448491e-07,8.54367377e-07,1.05827051e-06,1.31269816e-06,1.6463353e-06
4.7,3.55575216e-07,6.63582281e-07,8.46840319e-07,1.04634185e-06,1.29490171e-06,1.62013106e-06
4.75,3.55106625e-07,6.59811768e-07,8.39517272e-07,1.03476773e-06,1.27768633e-06,1.59487256e-06
4.8,3.54650117e-07,6.56133468e-07,8.32390075e-07,1.02353262e-06,1.26102416e-06,1.57050984e-06
4.85,3.54205283e-07,6.52544062e-07,8.25450998e-07,1.01262189e-06,1.24488907e-06,1.54699637e-06
4.9,3.53771732e-07,6.49040389e-07,8.18692709e-07,1.00202174e-06,1.22925655e-06,1.52428875e-06
4.95,3.53349087e-07,6.45619435e-07,8.12108254e-07,9.91719135e-07,1.21410359e-06,1.50234652e-06
5.0,3.5293699e-07,6.42278326e-07,8.05691026e-07,9.8170176e-07,1.19940855e-06,1.48113182e-06
5.05,3.52535095e-07,6.39014317e-07,7.99434753e-07,9.71957966e-07,1.18515107e-06,1.46060927e-06
5.1,3.52143073e-07,6.35824788e-07,7.93333467e-07,9.62476729e-07,1.17131197e-06,1.44074573e-06
5.15,3.51760607e-07,6.32707236e-07,7.87381494e-07,9.53247608e-07,1.15787318e-06,1.42151011e-06
5.2,3.51387392e-07,6.29659269e-07,7.81573431e-07,9.44260707e-07,1.14481763e-06,1.40287327e-06
5.25,3.51023138e-07,6.26678598e-07,7.75904134e-07,9.35506637e-07,1.13212924e-06,1.38480781e-06
5.3,3.50667565e-07,6.23763034e-07,7.70368698e-07,9.26976491e-07,1.11979279e-06,1.36728799e-06
5.35,3.50320403e-07,6.2091048e-07,7.64962447e-07,9.18661807e-07,1.10779388e-06,1.35028958e-06
5.4,3.49981394e-07,6.18118929e-07,7.59680921e-07,9.10554542e-07,1.0961189e-06,1.33378974e-06
5.45,3.4965029e-07,6.15386458e-07,7.54519861e-07,9.0264705e-07,1.08475495e-06,1.31776697e-06
5.5,3.49326851e-07,6.12711223e-07,7.494752e-07,8.94932052e-07,1.07368981e-06,1.30220097e-06
5.55,3.49010848e-07,6.10091456e-07,7.44543051e-07,8.87402621e-07,1.06291189e-06,1.28707255e-06
5.6,3.48702059e-07,6.07525459e-07,7.39719697e-07,8.80052154e-07,1.05241018e-06,1.27236361e-06
5.65,3.48400272e-07,6.05011606e-07,7.35001584e-07,8.72874359e-07,1.04217423e-06,1.25805702e-06
5.7,3.48105281e-07,6.02548331e-07,7.3038531e-07,8.65863234e-07,1.03219411e-06,1.24413656e-06
5.75,3.47816889e-07,6.00134134e-07,7.25867618e-07,8.59013052e-07,1.02246038e-06,1.23058686e-06
5.8,3.47534906e-07,5.9776757e-07,7.21445387e-07,8.52318345e-07,1.01296405e-06,1.21739338e-06
5.85,3.47259148e-07,5.95447252e-07,7.17115629e-07,8.45773886e-07,1.00369656e-06,1.20454229e-06
5.9,3.46989437e-07,5.93171845e-07,7.12875475e-07,8.39374684e-07,9.94649762e-07,1.1920205e-06
5.95,3.46725605e-07,5.90940065e-07,7.08722175e-07,8.33115962e-07,9.85815891e-07,1.17981556e-06
6.0,3.46467485e-07,5.88750677e-07,7.04653092e-07,8.26993153e-07,9.77187534e-07,1.16791562e-06
6.05,3.46214918e-07,5.86602491e-07,7.00665691e-07,8.21001883e-07,9.68757621e-07,1.15630945e-06
6.1,3.45967752e-07,5.8449436e-07,6.9675754e-07,8.15137963e-07,9.60519399e-07,1.14498634e-06
6.15,3.45725838e-07,5.8242518e-07,6.92926301e-07,8.09397382e-07,9.5246642e-07,1.13393609e-06
6.2,3.45489034e-07,5.80393888e-07,6.89169727e-07,8.03776293e-07,9.44592519e-07,1.12314899e-06
6.25,3.45257199e-07,5.78399458e-07,6.85485659e-07,7.98271008e-07,9.36891803e-07,1.11261578e-06
6.3,3.45030202e-07,5.76440899e-07,6.81872017e-07,7.92877988e-07,9.29358631e-07,1.10232763e-06
6.35,3.44807912e-07,5.74517258e-07,6.78326803e-07,7.87593838e-07,9.21987607e-07,1.09227612e-06
6.4,3.44590204e-07,5.72627612e-07,6.74848091e-07,7.82415296e-07,9.14773562e-07,1.08245319e-06
6.45,3.44376958e-07,5.70771074e-07,6.71434029e-07,7.77339232e-07,9.07711544e-07,1.07285117e-06
6.5,3.44168057e-07,5.68946784e-07,6.6808283e-07,7.72362634e-07,9.00796805e-07,1.0634627e-06
6.55,3.43963387e-07,5.67153913e-07,6.64792775e-07,7.67482609e-07,8.94024796e-07,1.05428077e-06
6.6,3.43762838e-07,5.65391658e-07,6.61562205e-07,7.62696376e-07,8.87391148e-07,1.04529864e-06
