vds,vb1,vb2,vb3,vb4,vb5,vb6
0.0,1.21616127e-06,5.35168554e-06,8.9257615e-06,1.18245994e-05,1.40369214e-05,1.5624828e-05
0.05,9.58182182e-07,5.07961171e-06,8.66825111e-06,1.15875397e-05,1.38229742e-05,1.54345735e-05
0.1,7.03260254e-07,4.80826414e-06,8.41146253e-06,1.1351131e-05,1.36095813e-05,1.5244774e-05
0.15,4.57039688e-07,4.53764394e-06,8.15539309e-06,1.1115371e-05,1.33967406e-05,1.50554281e-05
0.2,2.39440372e-07,4.26775371e-06,7.9000401e-06,1.08802572e-05,1.31844503e-05,1.48665342e-05
0.25,9.42688237e-08,3.99859818e-06,7.64540092e-06,1.06457871e-05,1.29727083e-05,1.4678091e-05
0.3,3.36300222e-08,3.73018535e-06,7.39147293e-06,1.04119583e-05,1.27615128e-05,1.4490097e-05
0.35,1.43412208e-08,3.46252826e-06,7.13825351e-06,1.01787684e-05,1.25508618e-05,1.43025506e-05
0.4,7.83792372e-09,3.19564806e-06,6.88574012e-06,9.94621496e-06,1.23407534e-05,1.41154505e-05
0.45,5.24563192e-09,2.92957908e-06,6.63393024e-06,9.71429548e-06,1.21311857e-05,1.39287953e-05
0.5,4.03845526e-09,2.66437804e-06,6.38282141e-06,9.48300755e-06,1.19221566e-05,1.37425835e-05
0.55,3.4025144e-09,2.40014066e-06,6.13241126e-06,9.25234871e-06,1.17136645e-05,1.35568136e-05
0.6,3.03387766e-09,2.13703332e-06,5.88269753e-06,9.0223165e-06,1.15057072e-05,1.33714842e-05
0.65,2.8035725e-09,1.87535497e-06,5.63367812e-06,8.79290846e-06,1.12982829e-05,1.3186594e-05
0.7,2.65085024e-09,1.61566235e-06,5.38535114e-06,8.5641221e-06,1.10913897e-05,1.30021414e-05
0.75,2.54456662e-09,1.35902828e-06,5.13771504e-06,8.3359549e-06,1.08850257e-05,1.2818125e-05
0.8,2.46760663e-09,1.10757081e-06,4.89076871e-06,8.10840436e-06,1.06791888e-05,1.26345435e-05
0.85,2.41000692e-09,8.65462369e-07,4.64451174e-06,7.88146789e-06,1.04738773e-05,1.24513954e-05
0.9,2.36567945e-09,6.40444356e-07,4.39894469e-06,7.65514292e-06,1.02690892e-05,1.22686793e-05
0.95,2.33074766e-09,4.44612422e-07,4.15406969e-06,7.42942682e-06,1.00648224e-05,1.20863937e-05
1.0,2.30265405e-09,2.90899993e-07,3.90989119e-06,7.20431691e-06,9.86107519e-06,1.19045373e-05
1.05,2.27965864e-09,1.84358148e-07,3.66641725e-06,6.97981045e-06,9.65784547e-06,1.17231087e-05
1.1,2.26054529e-09,1.17887537e-07,3.42366165e-06,6.75590464e-06,9.45513129e-06,1.15421063e-05
1.15,2.24444357e-09,7.86306595e-08,3.18164737e-06,6.5325966e-06,9.25293067e-06,1.13615289e-05
1.2,2.23071715e-09,5.55600985e-08,2.94041234e-06,6.30988338e-06,9.0512416e-06,1.1181375e-05
1.25,2.21889204e-09,4.16417109e-08,2.70001946e-06,6.0877619e-06,8.85006204e-06,1.10016431e-05
1.3,2.20860911e-09,3.29051728e-08,2.46057393e-06,5.86622898e-06,8.64938993e-06,1.08223318e-05
1.35,2.19959205e-09,2.71831583e-08,2.22225407e-06,5.64528132e-06,8.44922317e-06,1.06434398e-05
1.4,2.19162535e-09,2.32809347e-08,1.98536663e-06,5.42491546e-06,8.24955964e-06,1.04649655e-05
1.45,2.18453875e-09,2.0520813e-08,1.75044641e-06,5.20512783e-06,8.05039716e-06,1.02869076e-05
1.5,2.17819621e-09,1.8504607e-08,1.51843355e-06,4.98591469e-06,7.85173349e-06,1.01092645e-05
1.55,2.17248784e-09,1.69897486e-08,1.29097505e-06,4.7672722e-06,7.65356635e-06,9.93203492e-06
1.6,2.16732406e-09,1.58232802e-08,1.07088448e-06,4.54919647e-06,7.45589337e-06,9.75521729e-06
1.65,2.16263116e-09,1.49056222e-08,8.62676505e-07,4.33168366e-06,7.2587121e-06,9.57881014e-06
1.7,2.15834797e-09,1.41700344e-08,6.72756404e-07,4.1147302e-06,7.06202e-06,9.40281199e-06
1.75,2.15442338e-09,1.35705953e-08,5.0842394e-07,3.89833314e-06,6.86581441e-06,9.22722132e-06
1.8,2.15081436e-09,1.3074951e-08,3.75250767e-07,3.68249082e-06,6.67009254e-06,9.05203662e-06
1.85,2.14748441e-09,1.26598143e-08,2.74308637e-07,3.46720396e-06,6.47485143e-06,8.87725633e-06
1.9,2.14440245e-09,1.23080978e-08,2.01815843e-07,3.25247754e-06,6.28008796e-06,8.70287888e-06
1.95,2.1415418e-09,1.20070421e-08,1.51406816e-07,3.03832404e-06,6.08579877e-06,8.52890265e-06
2.0,2.13887945e-09,1.1746968e-08,1.16718377e-07,2.82476896e-06,5.89198027e-06,8.35532602e-06
2.05,2.13639546e-09,1.15204263e-08,9.27054602e-08,2.61186032e-06,5.69862856e-06,8.18214731e-06
2.1,2.13407249e-09,1.1321608e-08,7.58163124e-08,2.39968509e-06,5.50573941e-06,8.00936479e-06
2.15,2.13189534e-09,1.11459287e-08,6.36885008e-08,2.18839745e-06,5.31330818e-06,7.8369767e-06
2.2,2.12985069e-09,1.09897299e-08,5.47831273e-08,1.9782673e-06,5.12132976e-06,7.6649812e-06
2.25,2.12792676e-09,1.08500627e-08,4.80982796e-08,1.76976205e-06,4.92979849e-06,7.49337641e-06
2.3,2.12611316e-09,1.07245276e-08,4.29747672e-08,1.56367963e-06,4.73870811e-06,7.32216033e-06
2.35,2.12440064e-09,1.0611155e-08,3.89718603e-08,1.36134976e-06,4.5480516e-06,7.15133093e-06
2.4,2.12278095e-09,1.05083155e-08,3.5789386e-08,1.16489781e-06,4.35782116e-06,6.98088602e-06
2.45,2.12124673e-09,1.04146508e-08,3.32189449e-08,9.77492639e-07,4.16800809e-06,6.81082332e-06
2.5,2.11979137e-09,1.03290211e-08,3.1113096e-08,8.0336261e-07,3.97860274e-06,6.64114043e-06
2.55,2.11840893e-09,1.02504632e-08,2.93656242e-08,6.47260775e-07,3.78959454e-06,6.47183476e-06
2.6,2.11709406e-09,1.01781587e-08,2.78986986e-08,5.13255882e-07,3.60097213e-06,6.30290355e-06
2.65,2.1158419e-09,1.01114079e-08,2.66543733e-08,4.03339834e-07,3.41272376e-06,6.13434384e-06
2.7,2.11464806e-09,1.00496098e-08,2.55888652e-08,3.16779297e-07,3.22483805e-06,5.96615241e-06
2.75,2.11350857e-09,9.9922453e-09,2.4668636e-08,2.50644007e-07,3.03730561e-06,5.79832576e-06
2.8,2.11241977e-09,9.93886402e-09,2.38676682e-08,2.00996403e-07,2.85012189e-06,5.63086004e-06
2.85,2.11137837e-09,9.88907352e-09,2.31655403e-08,1.63948105e-07,2.66329231e-06,5.46375103e-06
2.9,2.11038132e-09,9.84253035e-09,2.25460485e-08,1.36220805e-07,2.47684121e-06,5.29699405e-06
2.95,2.10942585e-09,9.7989328e-09,2.1996206e-08,1.15285615e-07,2.2908274e-06,5.13058388e-06
3.0,2.10850941e-09,9.75801481e-09,2.15055064e-08,9.9284378e-08,2.10537022e-06,4.96451468e-06
3.05,2.10762966e-09,9.71954095e-09,2.10653762e-08,8.68838863e-08,1.92069292e-06,4.79877985e-06
3.1,2.10678444e-09,9.68330216e-09,2.06687627e-08,7.71355682e-08,1.73719172e-06,4.63337197e-06
3.15,2.10597175e-09,9.64911224e-09,2.03098202e-08,6.9363819e-08,1.55554028e-06,4.46828259e-06
3.2,2.10518975e-09,9.61680483e-09,1.99836697e-08,6.30842455e-08,1.37683309e-06,4.30350208e-06
3.25,2.10443675e-09,9.58623087e-09,1.96862118e-08,5.79461226e-08,1.20275048e-06,4.13901946e-06
3.3,2.10371115e-09,9.55725643e-09,1.94139814e-08,5.36925753e-08,1.03568213e-06,3.97482215e-06
3.35,2.10301149e-09,9.52976089e-09,1.91640322e-08,5.01331583e-08,8.78685057e-07,3.8108958e-06
3.4,2.1023364e-09,9.50363529e-09,1.89338458e-08,4.71249263e-08,7.35133301e-07,3.64722403e-06
3.45,2.10168463e-09,9.47878101e-09,1.87212583e-08,4.45592806e-08,6.08035565e-07,3.48378827e-06
3.5,2.10105498e-09,9.45510857e-09,1.85244016e-08,4.23527472e-08,4.99254991e-07,3.32056768e-06
3.55,2.10044635e-09,9.43253661e-09,1.83416556e-08,4.04404448e-08,4.09039072e-07,3.15753927e-06
3.6,2.0998577e-09,9.41099101e-09,1.81716092e-08,3.87714082e-08,3.36109598e-07,2.99467846e-06
3.65,2.09928809e-09,9.39040406e-09,1.80130286e-08,3.73052021e-08,2.78190533e-07,2.83196028e-06
3.7,2.09873659e-09,9.37071386e-09,1.78648306e-08,3.60094435e-08,2.32637912e-07,2.66936188e-06
3.75,2.09820236e-09,9.35186367e-09,1.77260609e-08,3.48579687e-08,1.96912922e-07,2.50686716e-06
3.8,2.09768461e-09,9.33380137e-09,1.75958759e-08,3.38294632e-08,1.68827678e-07,2.344475e-06
3.85,2.09718259e-09,9.31647906e-09,1.74735271e-08,3.29064277e-08,1.46614989e-07,2.18221322e-06
3.9,2.0966956e-09,9.29985261e-09,1.73583489e-08,3.207439e-08,1.28900917e-07,2.02016183e-06
3.95,2.09622298e-09,9.28388128e-09,1.7249747e-08,3.13212995e-08,1.14639463e-07,1.85849003e-06
4.0,2.0957641e-09,9.26852746e-09,1.71471899e-08,3.06370569e-08,1.03042018e-07,1.69751251e-06
4.05,2.09531838e-09,9.25375632e-09,1.70502002e-08,3.0013147e-08,9.35154732e-08,1.53776953e-06
4.1,2.09488527e-09,9.23953558e-09,1.69583489e-08,2.94423495e-08,8.56127316e-08,1.38012898e-06
4.15,2.09446424e-09,9.2258353e-09,1.68712487e-08,2.89185085e-08,7.89949908e-08,1.22589329e-06
4.2,2.09405479e-09,9.21262765e-09,1.67885498e-08,2.84363496e-08,7.3403693e-08,1.07686796e-06
4.25,2.09365646e-09,9.19988674e-09,1.67099349e-08,2.79913313e-08,6.86399197e-08,9.35320268e-07
4.3,2.09326881e-09,9.18758845e-09,1.66351163e-08,2.75795261e-08,6.45493161e-08,8.03757828e-07
4.35,2.09289142e-09,9.17571029e-09,1.65638319e-08,2.71975225e-08,6.10110543e-08,6.84521259e-07
4.4,2.09252388e-09,9.16423124e-09,1.64958428e-08,2.68423452e-08,5.79297249e-08,5.79305989e-07
4.45,2.09216582e-09,9.15313167e-09,1.64309309e-08,2.65113893e-08,5.52293459e-08,4.88814323e-07
4.5,2.09181689e-09,9.14239321e-09,1.63688965e-08,2.62023661e-08,5.28489071e-08,4.12690999e-07
4.55,2.09147673e-09,9.13199863e-09,1.63095566e-08,2.59132573e-08,5.07390311e-08,3.49736904e-07
4.6,2.09114504e-09,9.1219318e-09,1.62527429e-08,2.56422774e-08,4.88594525e-08,2.9826279e-07
4.65,2.09082149e-09,9.11217757e-09,1.6198301e-08,2.53878418e-08,4.71770997e-08,2.56428481e-07
4.7,2.0905058e-09,9.10272168e-09,1.61460882e-08,2.51485399e-08,4.56646234e-08,2.22481303e-07
4.75,2.09019769e-09,9.09355076e-09,1.60959732e-08,2.49231127e-08,4.42992596e-08,1.94881967e-07
4.8,2.08989689e-09,9.0846522e-09,1.60478344e-08,2.47104329e-08,4.30619441e-08,1.72345688e-07
4.85,2.08960314e-09,9.07601412e-09,1.60015595e-08,2.45094889e-08,4.19366179e-08,1.53833555e-07
4.9,2.08931621e-09,9.06762532e-09,1.59570443e-08,2.43193706e-08,4.0909679e-08,1.38521177e-07
4.95,2.08903586e-09,9.05947523e-09,1.5914192e-08,2.41392568e-08,3.99695459e-08,1.25761005e-07
5.0,2.08876187e-09,9.05155388e-09,1.58729129e-08,2.39684056e-08,3.91063085e-08,1.15046545e-07
5.05,2.08849404e-09,9.04385183e-09,1.58331234e-08,2.38061446e-08,3.83114474e-08,1.05981719e-07
5.1,2.08823215e-09,9.03636015e-09,1.57947458e-08,2.36518633e-08,3.75776054e-08,9.82560262e-08
5.15,2.08797602e-09,9.02907039e-09,1.57577073e-08,2.35050064e-08,3.68984025e-08,9.16250144e-08
5.2,2.08772547e-09,9.02197455e-09,1.57219404e-08,2.33650677e-08,3.62682836e-08,8.58951938e-08
5.25,2.0874803e-09,9.01506503e-09,1.56873817e-08,2.32315849e-08,3.56823934e-08,8.09124803e-08
5.3,2.08724036e-09,9.00833465e-09,1.5653972e-08,2.31041349e-08,3.51364727e-08,7.65533781e-08
5.35,2.08700548e-09,9.00177656e-09,1.56216558e-08,2.29823303e-08,3.46267723e-08,7.27182523e-08
5.4,2.08677551e-09,8.99538428e-09,1.55903811e-08,2.2865815e-08,3.41499809e-08,6.93261861e-08
5.45,2.08655029e-09,8.98915162e-09,1.55600991e-08,2.27542619e-08,3.3703165e-08,6.63110342e-08
5.5,2.08632969e-09,8.98307273e-09,1.55307641e-08,2.26473697e-08,3.32837174e-08,6.36183814e-08
5.55,2.08611356e-09,8.97714201e-09,1.55023328e-08,2.25448603e-08,3.28893149e-08,6.1203185e-08
5.6,2.08590178e-09,8.97135414e-09,1.54747649e-08,2.2446477e-08,3.25178812e-08,5.9027938e-08
5.65,2.08569421e-09,8.96570406e-09,1.54480221e-08,2.23519824e-08,3.21675559e-08,5.70612295e-08
5.7,2.08549073e-09,8.96018693e-09,1.54220685e-08,2.22611564e-08,3.1836668e-08,5.52766091e-08
5.75,2.08529123e-09,8.95479814e-09,1.539687e-08,2.21737951e-08,3.15237127e-08,5.36516869e-08
5.8,2.08509559e-09,8.94953329e-09,1.53723947e-08,2.2089709e-08,3.12273318e-08,5.21674148e-08
5.85,2.0849037e-09,8.94438818e-09,1.53486123e-08,2.20087219e-08,3.0946297e-08,5.08075103e-08
5.9,2.08471546e-09,8.9393588e-09,1.53254942e-08,2.19306698e-08,3.06794946e-08,4.95579912e-08
5.95,2.08453077e-09,8.9344413e-09,1.53030133e-08,2.18553999e-08,3.04259132e-08,4.84067987e-08
6.0,2.08434953e-09,8.92963202e-09,1.52811439e-08,2.17827697e-08,3.01846321e-08,4.73434891e-08
6.05,2.08417164e-09,8.92492744e-09,1.52598617e-08,2.17126459e-08,2.99548118e-08,4.63589822e-08
6.1,2.08399702e-09,8.9203242e-09,1.52391437e-08,2.16449039e-08,2.97356854e-08,4.54453528e-08
6.15,2.08382558e-09,8.91581908e-09,1.52189681e-08,2.15794273e-08,2.95265512e-08,4.45956594e-08
6.2,2.08365723e-09,8.911409e-09,1.5199314e-08,2.15161069e-08,2.93267657e-08,4.38038009e-08
6.25,2.0834919e-09,8.907091e-09,1.51801617e-08,2.14548401e-08,2.91357381e-08,4.3064397e-08
6.3,2.0833295e-09,8.90286223e-09,1.51614926e-08,2.13955309e-08,2.89529252e-08,4.23726885e-08
6.35,2.08316996e-09,8.89871999e-09,1.51432887e-08,2.13380889e-08,2.87778265e-08,4.17244526e-08
6.4,2.0830132e-09,8.89466166e-09,1.51255331e-08,2.12824291e-08,2.86099805e-08,4.11159318e-08
6.45,2.08285916e-09,8.89068472e-09,1.51082095e-08,2.12284717e-08,2.84489607e-08,4.05437733e-08
6.5,2.08270777e-09,8.88678677e-09,1.50913027e-08,2.11761413e-08,2.82943727e-08,4.00049776e-08
6.55,2.08255896e-09,8.8829655e-09,1.50747979e-08,2.11253669e-08,2.81458511e-08,3.94968545e-08
6.6,2.08241266e-09,8.87921867e-09,1.50586812e-08,2.10760815e-08,2.8003057e-08,3.90169851e-08
