vds,vb1,vb2,vb3,vb4,vb5,vb6
0.0,6.97770907e-05,0.000367745955,0.000619475138,0.000819562017,0.000968702087,0.00107252265
0.05,5.08553699e-05,0.000346825299,0.000599222039,0.000800559685,0.000951307209,0.00105689991
0.1,3.25070801e-05,0.000326026076,0.000579093336,0.000781671472,0.000934010544,0.00104135833
0.15,1.62049922e-05,0.000305347684,0.000559087994,0.000762896452,0.000916811348,0.00102589737
0.2,5.72845918e-06,0.000284789671,0.000539204979,0.000744233705,0.00089970888,0.00101051645
0.25,1.89439776e-06,0.000264351815,0.000519443265,0.000725682317,0.000882702409,0.000995215026
0.3,8.18482451e-07,0.00024403426,0.00049980183,0.000707241383,0.000865791207,0.000979992539
0.35,4.70606445e-07,0.000223837753,0.000480279652,0.00068891,0.000848974552,0.000964848446
0.4,3.30064009e-07,0.000203764079,0.000460875709,0.000670687274,0.000832251729,0.000949782202
0.45,2.61927064e-07,0.000183816875,0.000441588978,0.00065257231,0.000815622026,0.00093479327
0.5,2.24085946e-07,0.00016400324,0.000422418428,0.000634564222,0.000799084738,0.000919881114
0.55,2.00837604e-07,0.000144337026,0.000403363019,0.000616662121,0.000782639163,0.000905045204
0.6,1.85423101e-07,0.000124845868,0.000384421698,0.000598865122,0.000766284603,0.000890285012
0.65,1.74585122e-07,0.00010558668,0.00036559339,0.00058117234,0.000750020367,0.000875600015
0.7,1.66606298e-07,8.66801451e-05,0.000346876996,0.000563582886,0.000733845764,0.000860989693
0.75,1.60513064e-07,6.8384052e-05,0.000328271381,0.000546095867,0.000717760108,0.00084645353
0.8,1.5571971e-07,5.12226278e-05,0.000309775372,0.000528710384,0.000701762716,0.000831991012
0.85,1.51856019e-07,3.60996928e-05,0.00029138775,0.000511425528,0.000685852908,0.000817601631
0.9,1.48678046e-07,2.40838576e-05,0.000273107257,0.000494240373,0.000670030003,0.000803284878
0.95,1.46019264e-07,1.56767487e-05,0.000254932615,0.000477153977,0.000654293325,0.000789040251
1.0,1.43762485e-07,1.03771027e-05,0.000236862592,0.000460165371,0.000638642194,0.000774867248
1.05,1.41823048e-07,7.19140524e-06,0.000218896155,0.000443273553,0.000623075932,0.00076076537
1.1,1.40138367e-07,5.26739e-06,0.000201032811,0.000426477478,0.000607593858,0.000746734123
1.15,1.38661231e-07,4.06527068e-06,0.00018327336,0.000409776045,0.000592195288,0.000732773011
1.2,1.37355387e-07,3.28029287e-06,0.000165621493,0.00039316808,0.000576879533,0.000718881542
1.25,1.36192554e-07,2.74450213e-06,0.000148087213,0.000376652321,0.000561645897,0.000705059227
1.3,1.35150349e-07,2.3637422e-06,0.000130694018,0.000360227383,0.000546493674,0.000691305576
1.35,1.34210836e-07,2.08343439e-06,0.000113493629,0.000343891734,0.000531422148,0.0006776201
1.4,1.33359471e-07,1.87071244e-06,9.65943883e-05,0.000327643645,0.000516430586,0.000664002312
1.45,1.32584341e-07,1.70502524e-06,8.02090965e-05,0.000311481141,0.000501518236,0.000650451722
1.5,1.31875593e-07,1.57306273e-06,6.47133756e-05,0.000295401926,0.00048668432,0.000636967843
1.55,1.31225008e-07,1.46592469e-06,5.06605787e-05,0.000279403302,0.000471928031,0.000623550183
1.6,1.30625677e-07,1.3774864e-06,3.86557043e-05,0.000263482059,0.000457248524,0.000610198251
1.65,1.30071745e-07,1.30342353e-06,2.90831265e-05,0.000247634356,0.000442644905,0.000596911549
1.7,1.29558221e-07,1.24061205e-06,2.1907335e-05,0.000231855595,0.000428116221,0.000583689578
1.75,1.29080825e-07,1.18674831e-06,1.67447432e-05,0.000216140334,0.000413661446,0.000570531831
1.8,1.28635862e-07,1.14010201e-06,1.3093149e-05,0.000200482323,0.000399279463,0.000557437795
1.85,1.28220125e-07,1.09935187e-06,1.05046553e-05,0.000184874867,0.000384969039,0.000544406949
1.9,1.27830822e-07,1.06347374e-06,8.64380556e-06,0.000169311952,0.000370728802,0.000531438758
1.95,1.27465503e-07,1.03166299e-06,7.27923275e-06,0.000153791003,0.000356557196,0.000518532677
2.0,1.27122017e-07,1.00327965e-06,6.25656851e-06,0.000138318937,0.000342452444,0.000505688141
2.05,1.26798461e-07,9.77808999e-07,5.47347496e-06,0.000122924291,0.000328412485,0.000492904567
2.1,1.2649315e-07,9.54832803e-07,4.8615793e-06,0.000107679053,0.000314434898,0.000480181346
2.15,1.26204582e-07,9.34008016e-07,4.37451946e-06,9.27317692e-05,0.000300516811,0.000467517842
2.2,1.25931419e-07,9.15050839e-07,3.98028978e-06,7.83432537e-05,0.000286654776,0.00045491338
2.25,1.2567246e-07,8.97724615e-07,3.65637441e-06,6.48949115e-05,0.000272844617,0.000442367244
2.3,1.25426629e-07,8.81830544e-07,3.38663498e-06,5.28262641e-05,0.00025908124,0.000429878665
2.35,1.25192953e-07,8.67200487e-07,3.15929536e-06,4.24968266e-05,0.000245358404,0.000417446809
2.4,1.24970555e-07,8.53691337e-07,2.96561674e-06,3.40525155e-05,0.000231668456,0.000405070766
2.45,1.2475864e-07,8.41180574e-07,2.79901176e-06,2.73965554e-05,0.000218002055,0.000392749533
2.5,1.24556488e-07,8.29562723e-07,2.65444223e-06,2.22693585e-05,0.000204347959,0.000380481989
2.55,1.24363442e-07,8.18746522e-07,2.52800282e-06,1.83582606e-05,0.000190693019,0.000368266875
2.6,1.24178903e-07,8.0865262e-07,2.41662863e-06,1.53733215e-05,0.000177022707,0.000356102757
2.65,1.24002323e-07,7.99211716e-07,2.31788679e-06,1.30784585e-05,0.000163322804,0.000343987987
2.7,1.23833202e-07,7.90363025e-07,2.22982564e-06,1.12941648e-05,0.000149583378,0.000331920654
2.75,1.23671079e-07,7.82053022e-07,2.15086428e-06,9.88852577e-06,0.000135806831,0.000319898521
2.8,1.23515533e-07,7.74234393e-07,2.07971053e-06,8.76594034e-06,0.000122022269,0.000307918938
2.85,1.23366172e-07,7.66865171e-07,2.01529937e-06,7.85726487e-06,0.000108307501,0.000295978752
2.9,1.23222639e-07,7.59908001e-07,1.95674617e-06,7.11224618e-06,9.4815377e-05,0.000284074169
2.95,1.23084602e-07,7.5332953e-07,1.90331083e-06,6.49403916e-06,8.17913116e-05,0.000272200604
3.0,1.22951753e-07,7.47099888e-07,1.85436999e-06,5.97533641e-06,6.95590268e-05,0.000260352477
3.05,1.22823808e-07,7.41192247e-07,1.80939532e-06,5.53566115e-06,5.84581824e-05,0.000248522976
3.1,1.22700503e-07,7.35582445e-07,1.76793639e-06,5.15947438e-06,4.87513843e-05,0.000236703769
3.15,1.22581592e-07,7.30248665e-07,1.72960709e-06,4.83484464e-06,4.0552194e-05,0.000224884677
3.2,1.22466847e-07,7.25171161e-07,1.69407472e-06,4.55250579e-06,3.38152467e-05,0.000213053344
3.25,1.22356055e-07,7.20332014e-07,1.66105123e-06,4.30518307e-06,2.83816538e-05,0.000201194965
3.3,1.22249017e-07,7.1571493e-07,1.63028607e-06,4.08710612e-06,2.40416205e-05,0.000189292225
3.35,1.22145549e-07,7.11305062e-07,1.60156039e-06,3.89365338e-06,2.05834565e-05,0.00017732575
3.4,1.22045475e-07,7.0708885e-07,1.57468223e-06,3.72108948e-06,1.78200833e-05,0.000165275604
3.45,1.21948635e-07,7.03053887e-07,1.54948259e-06,3.56636947e-06,1.55979237e-05,0.000153124699
3.5,1.21854876e-07,6.99188799e-07,1.52581216e-06,3.42699122e-06,1.37960124e-05,0.000140865416
3.55,1.21764054e-07,6.9548314e-07,1.50353852e-06,3.30088318e-06,1.23211364e-05,0.000128510818
3.6,1.21676037e-07,6.91927301e-07,1.4825439e-06,3.18631819e-06,1.11021704e-05,0.000116111046
3.65,1.21590697e-07,6.88512425e-07,1.46272321e-06,3.08184669e-06,1.00849646e-05,0.000103772532
3.7,1.21507916e-07,6.85230339e-07,1.4439824e-06,2.98624453e-06,9.22819165e-06,9.16721573e-05
3.75,1.21427582e-07,6.82073488e-07,1.42623705e-06,2.89847187e-06,8.50014085e-06,8.00531885e-05
3.8,1.21349591e-07,6.79034874e-07,1.40941123e-06,2.81764064e-06,7.87630853e-06,6.91920296e-05
3.85,1.21273842e-07,6.76108012e-07,1.39343642e-06,2.74298839e-06,7.33760848e-06,5.93403218e-05
3.9,1.21200241e-07,6.73286881e-07,1.37825065e-06,2.67385738e-06,6.86904878e-06,5.06669075e-05
3.95,1.21128701e-07,6.70565883e-07,1.36379777e-06,2.60967759e-06,6.45875285e-06,4.32281415e-05
4.0,1.21059137e-07,6.67939806e-07,1.35002675e-06,2.54995284e-06,6.0972326e-06,3.69762881e-05
4.05,1.2099147e-07,6.65403794e-07,1.33689116e-06,2.4942495e-06,5.7768456e-06,3.17929795e-05
4.1,1.20925624e-07,6.62953315e-07,1.32434861e-06,2.44218707e-06,5.49138733e-06,2.75272438e-05
4.15,1.20861528e-07,6.60584135e-07,1.31236039e-06,2.3934305e-06,5.23578228e-06,2.40246828e-05
4.2,1.20799116e-07,6.58292294e-07,1.30089103e-06,2.34768369e-06,5.00584852e-06,2.11443767e-05
4.25,1.20738321e-07,6.56074085e-07,1.28990801e-06,2.3046841e-06,4.79811665e-06,1.87659135e-05
4.3,1.20679084e-07,6.53926033e-07,1.27938141e-06,2.26419821e-06,4.60968963e-06,1.67903586e-05
4.35,1.20621346e-07,6.51844878e-07,1.26928373e-06,2.22601769e-06,4.43813343e-06,1.51382518e-05
4.4,1.20565053e-07,6.49827558e-07,1.25958959e-06,2.18995615e-06,4.28139105e-06,1.37465475e-05
4.45,1.20510151e-07,6.47871195e-07,1.25027556e-06,2.15584635e-06,4.13771452e-06,1.25654877e-05
4.5,1.20456592e-07,6.4597308e-07,1.24131997e-06,2.1235379e-06,4.00561069e-06,1.15558324e-05
4.55,1.20404326e-07,6.44130663e-07,1.23270277e-06,2.09289515e-06,3.88379773e-06,1.06865686e-05
4.6,1.2035331e-07,6.4234154e-07,1.22440533e-06,2.0637955e-06,3.77117011e-06,9.93308512e-06
4.65,1.20303499e-07,6.40603443e-07,1.21641038e-06,2.03612789e-06,3.66677006e-06,9.27574831e-06
4.7,1.20254853e-07,6.3891423e-07,1.20870186e-06,2.00979145e-06,3.56976434e-06,8.69880151e-06
4.75,1.20207331e-07,6.37271877e-07,1.2012648e-06,1.98469445e-06,3.47942513e-06,8.18951909e-06
4.8,1.20160896e-07,6.35674471e-07,1.19408526e-06,1.96075323e-06,3.39511429e-06,7.73755645e-06
4.85,1.20115513e-07,6.34120201e-07,1.18715022e-06,1.93789138e-06,3.31627028e-06,7.33444977e-06
4.9,1.20071146e-07,6.32607351e-07,1.18044753e-06,1.91603896e-06,3.24239725e-06,6.97322963e-06
4.95,1.20027762e-07,6.31134296e-07,1.17396582e-06,1.89513188e-06,3.17305594e-06,6.64812127e-06
5.0,1.19985331e-07,6.29699493e-07,1.16769444e-06,1.87511125e-06,3.10785601e-06,6.35431087e-06
5.05,1.19943821e-07,6.2830148e-07,1.16162341e-06,1.85592293e-06,3.04644951e-06,6.08776227e-06
5.1,1.19903204e-07,6.26938865e-07,1.15574338e-06,1.837517e-06,2.98852547e-06,5.84507246e-06
5.15,1.19863452e-07,6.25610328e-07,1.15004555e-06,1.81984744e-06,2.93380515e-06,5.62335694e-06
5.2,1.19824538e-07,6.24314613e-07,1.14452165e-06,1.80287168e-06,2.88203808e-06,5.4201582e-06
5.25,1.19786437e-07,6.23050524e-07,1.13916392e-06,1.78655034e-06,2.83299864e-06,5.23337239e-06
5.3,1.19749124e-07,6.21816924e-07,1.13396503e-06,1.77084695e-06,2.78648308e-06,5.06119002e-06
5.35,1.19712576e-07,6.20612728e-07,1.12891808e-06,1.75572762e-06,2.74230701e-06,4.90204789e-06
5.4,1.1967677e-07,6.19436902e-07,1.12401656e-06,1.74116089e-06,2.70030319e-06,4.75458994e-06
5.45,1.19641683e-07,6.18288461e-07,1.11925434e-06,1.72711749e-06,2.6603196e-06,4.61763501e-06
5.5,1.19607297e-07,6.17166464e-07,1.11462559e-06,1.71357015e-06,2.62221779e-06,4.4901504e-06
5.55,1.19573589e-07,6.16070013e-07,1.11012484e-06,1.70049343e-06,2.58587142e-06,4.37122987e-06
5.6,1.19540541e-07,6.14998249e-07,1.10574689e-06,1.68786361e-06,2.551165e-06,4.26007544e-06
5.65,1.19508134e-07,6.13950353e-07,1.10148682e-06,1.67565848e-06,2.51799274e-06,4.15598208e-06
5.7,1.1947635e-07,6.1292554e-07,1.09733997e-06,1.6638573e-06,2.4862576e-06,4.05832493e-06
5.75,1.19445172e-07,6.11923059e-07,1.09330192e-06,1.6524406e-06,2.45587038e-06,3.96654851e-06
5.8,1.19414583e-07,6.10942194e-07,1.08936848e-06,1.64139018e-06,2.42674899e-06,3.88015756e-06
5.85,1.19384568e-07,6.09982255e-07,1.08553566e-06,1.6306889e-06,2.39881776e-06,3.79870931e-06
5.9,1.1935511e-07,6.09042583e-07,1.08179968e-06,1.62032072e-06,2.37200682e-06,3.72180688e-06
5.95,1.19326195e-07,6.08122548e-07,1.07815695e-06,1.61027051e-06,2.34625157e-06,3.64909359e-06
6.0,1.19297808e-07,6.07221543e-07,1.07460404e-06,1.60052406e-06,2.3214922e-06,3.58024812e-06
6.05,1.19269935e-07,6.06338987e-07,1.07113769e-06,1.59106797e-06,2.29767326e-06,3.51498032e-06
6.1,1.19242564e-07,6.05474322e-07,1.0677548e-06,1.58188963e-06,2.27474327e-06,3.45302764e-06
6.15,1.1921568e-07,6.04627013e-07,1.06445241e-06,1.57297713e-06,2.25265439e-06,3.39415193e-06
6.2,1.19189272e-07,6.03796545e-07,1.06122771e-06,1.56431921e-06,2.23136209e-06,3.33813677e-06
6.25,1.19163327e-07,6.02982424e-07,1.058078e-06,1.55590526e-06,2.21082488e-06,3.28478508e-06
6.3,1.19137834e-07,6.02184174e-07,1.05500072e-06,1.54772522e-06,2.19100405e-06,3.23391706e-06
6.35,1.19112782e-07,6.0140134e-07,1.05199341e-06,1.53976959e-06,2.17186349e-06,3.18536835e-06
6.4,1.19088158e-07,6.0063348e-07,1.04905373e-06,1.53202937e-06,2.15336939e-06,3.13898847e-06
6.45,1.19063954e-07,5.99880172e-07,1.04617944e-06,1.52449601e-06,2.13549015e-06,3.09463938e-06
6.5,1.19040158e-07,5.99141009e-07,1.04336839e-06,1.51716144e-06,2.11819615e-06,3.05219426e-06
6.55,1.19016761e-07,5.98415597e-07,1.04061854e-06,1.51001796e-06,2.10145962e-06,3.01153641e-06
6.6,1.18993753e-07,5.9770356e-07,1.03792791e-06,1.50305828e-06,2.08525449e-06,2.9725583e-06
