vds,vb1,vb2,vb3,vb4,vb5,vb6
0.0,0.000342606671,0.00152234619,0.00237851914,0.00302318203,0.00348648688,0.00379873273
0.05,0.00022739668,0.00138078753,0.00222166228,0.00286064145,0.00332670987,0.00364745639
0.1,0.000126221965,0.00124631456,0.00207250398,0.00270558949,0.00317369024,0.00350198111
0.15,5.99373781e-05,0.00111845181,0.00193053205,0.00255756262,0.0030270463,0.00336201084
0.2,3.49591367e-05,0.000996747579,0.00179525569,0.00241611776,0.00288641363,0.00322726283
0.25,2.62699365e-05,0.000880775111,0.00166620256,0.00228082711,0.00275144022,0.00309746411
0.3,2.20734162e-05,0.000770126635,0.00154292221,0.00215127822,0.00262178482,0.00297234956
0.35,1.95351693e-05,0.000664383551,0.00142498996,0.00202707764,0.00249711787,0.00285166152
0.4,1.78087367e-05,0.000563063987,0.00131200524,0.00190785542,0.00237712401,0.00273515061
0.45,1.65516498e-05,0.000465677684,0.00120357842,0.00179326846,0.00226150528,0.00262257735
0.5,1.55943009e-05,0.000372569804,0.00109929888,0.00168300076,0.0021499839,0.00251371397
0.55,1.48413104e-05,0.00028750525,0.00099867289,0.00157675919,0.00204230403,0.00240834628
0.6,1.42343082e-05,0.000217905177,0.000901012181,0.00147426318,0.00193823205,0.00230627502
0.65,1.37353527e-05,0.000167419302,0.000805257194,0.00137522581,0.00183755491,0.00220731679
0.7,1.33186326e-05,0.0001328885,0.000709794052,0.00127932189,0.00174007618,0.00211130415
0.75,1.29659473e-05,0.000109231957,0.000612674118,0.00118613532,0.0016456092,0.00201808492
0.8,1.26640831e-05,9.25454701e-05,0.000513344293,0.00109507312,0.00155396632,0.00192752057
0.85,1.24032101e-05,8.03512671e-05,0.000416049602,0.00100523142,0.00146494259,0.00183948355
0.9,1.21758637e-05,7.11379534e-05,0.000329710422,0.000915218822,0.00137829074,0.00175385324
0.95,1.19762731e-05,6.39718562e-05,0.000260923097,0.000823050941,0.00129368229,0.00167051032
1.0,1.17999079e-05,5.82589739e-05,0.000209754413,0.000726551134,0.00121064682,0.00158932873
1.05,1.16431617e-05,5.36087242e-05,0.000172542248,0.000625074328,0.00112847938,0.00151016405
1.1,1.15031292e-05,4.97559826e-05,0.00014530193,0.000522327468,0.00104611215,0.00143283647
1.15,1.13774441e-05,4.65154798e-05,0.000124967566,0.000426552055,0.000961984837,0.00135710512
1.2,1.12641601e-05,4.37543413e-05,0.000109429643,0.000345422625,0.000874074443,0.00128262898
1.25,1.11616622e-05,4.13750469e-05,9.72805422e-05,0.000281478096,0.000780498909,0.00120890805
1.3,1.10685992e-05,3.93045457e-05,8.75788806e-05,0.000232864557,0.000681183959,0.00113519924
1.35,1.09838328e-05,3.74871138e-05,7.96851488e-05,0.000196193769,0.000579927358,0.00106041269
1.4,1.09063968e-05,3.58795514e-05,7.3155896e-05,0.000168299042,0.000484059528,0.000983036564
1.45,1.08354666e-05,3.44478799e-05,6.76769108e-05,0.000146744254,0.00040050039,0.000901246183
1.5,1.07703339e-05,3.31650241e-05,6.30208398e-05,0.000129785438,0.000332253508,0.000813514231
1.55,1.07103873e-05,3.20091553e-05,5.90199153e-05,0.000116201477,0.000278542709,0.000719973496
1.6,1.06550963e-05,3.09624868e-05,5.55480807e-05,0.00010513707,0.000236827552,0.000623886383
1.65,1.06039987e-05,3.00103851e-05,5.25090438e-05,9.59867787e-05,0.000204361449,0.000531329969
1.7,1.05566895e-05,2.9140704e-05,4.98281362e-05,8.83155714e-05,0.000178834888,0.000448386225
1.75,1.0512813e-05,2.83432806e-05,4.74466609e-05,8.18056799e-05,0.000158487614,0.000378377841
1.8,1.04720552e-05,2.76095479e-05,4.53178994e-05,7.6221126e-05,0.000142029094,0.000321497867
1.85,1.04341381e-05,2.69322348e-05,4.34042434e-05,7.13838652e-05,0.000128523714,0.000276095236
1.9,1.03988146e-05,2.6305131e-05,4.16751036e-05,6.71575415e-05,0.000117291569,0.000239970557
1.95,1.03658646e-05,2.57229008e-05,4.01053629e-05,6.34362648e-05,0.000107834118,0.000211072341
2.0,1.03350912e-05,2.51809354e-05,3.8674217e-05,6.01367414e-05,9.97813725e-05,0.00018772678
2.05,1.03063178e-05,2.46752332e-05,3.73642958e-05,5.71926717e-05,9.28550939e-05,0.000168645485
2.1,1.02793857e-05,2.42023034e-05,3.61609887e-05,5.45507051e-05,8.68432235e-05,0.000152859983
2.15,1.02541518e-05,2.37590875e-05,3.50519219e-05,5.21674776e-05,8.15820222e-05,0.000139646834
2.2,1.0230487e-05,2.33428942e-05,3.40265496e-05,5.00074151e-05,7.69434822e-05,0.000128464108
2.25,1.02082739e-05,2.29513466e-05,3.30758306e-05,4.80410839e-05,7.28263554e-05,0.000118902771
2.3,1.01874065e-05,2.25823371e-05,3.21919711e-05,4.62439377e-05,6.91496814e-05,0.000110651041
2.35,1.01677878e-05,2.22339908e-05,3.13682183e-05,4.4595356e-05,6.58480619e-05,0.000103468674
2.4,1.01493299e-05,2.19046344e-05,3.05986928e-05,4.30778982e-05,6.28681692e-05,9.71684898e-05
2.45,1.01319521e-05,2.15927697e-05,2.98782531e-05,4.16767198e-05,6.01661359e-05,9.16030599e-05
2.5,1.01155808e-05,2.12970512e-05,2.92023837e-05,4.03791116e-05,5.77055821e-05,8.66550422e-05
2.55,1.01001484e-05,2.10162675e-05,2.85671032e-05,3.91741328e-05,5.54561088e-05,8.22301093e-05
2.6,1.00855929e-05,2.0749325e-05,2.7968888e-05,3.80523161e-05,5.33921352e-05,7.82517208e-05
2.65,1.00718572e-05,2.04952335e-05,2.74046087e-05,3.70054304e-05,5.14919938e-05,7.46572208e-05
2.7,1.00588887e-05,2.02530951e-05,2.68714766e-05,3.60262864e-05,4.97372193e-05,7.13948954e-05
2.75,1.00466389e-05,2.0022093e-05,2.63669989e-05,3.51085785e-05,4.81119852e-05,6.84217324e-05
2.8,1.00350629e-05,1.98014828e-05,2.58889405e-05,3.42467538e-05,4.66026539e-05,6.57016984e-05
2.85,1.00241193e-05,1.95905849e-05,2.54352917e-05,3.3435904e-05,4.51974154e-05,6.32044034e-05
2.9,1.00137696e-05,1.93887771e-05,2.50042409e-05,3.26716751e-05,4.38859938e-05,6.0904055e-05
2.95,1.0003978e-05,1.91954894e-05,2.45941504e-05,3.19501916e-05,4.26594087e-05,5.87786334e-05
3.0,9.99471135e-06,1.90101978e-05,2.42035362e-05,3.12679932e-05,4.15097789e-05,5.68092361e-05
3.05,9.98593882e-06,1.88324207e-05,2.38310508e-05,3.06219808e-05,4.04301609e-05,5.49795518e-05
3.1,9.97763162e-06,1.86617137e-05,2.34754675e-05,3.00093708e-05,3.94144147e-05,5.3275437e-05
3.15,9.96976289e-06,1.84976671e-05,2.31356675e-05,2.94276562e-05,3.84570913e-05,5.16845712e-05
3.2,9.96230757e-06,1.83399016e-05,2.28106281e-05,2.88745734e-05,3.75533396e-05,5.01961761e-05
3.25,9.95524222e-06,1.81880664e-05,2.24994126e-05,2.83480735e-05,3.66988265e-05,4.88007838e-05
3.3,9.94854489e-06,1.80418361e-05,2.2201162e-05,2.7846297e-05,3.58896706e-05,4.74900455e-05
3.35,9.94219503e-06,1.79009085e-05,2.19150864e-05,2.73675535e-05,3.51223846e-05,4.62565725e-05
3.4,9.93617332e-06,1.77650026e-05,2.16404585e-05,2.69103022e-05,3.43938276e-05,4.50938036e-05
3.45,9.93046167e-06,1.76338569e-05,2.13766079e-05,2.64731359e-05,3.37011629e-05,4.39958928e-05
3.5,9.92504302e-06,1.75072275e-05,2.11229152e-05,2.60547672e-05,3.30418222e-05,4.29576159e-05
3.55,9.91990135e-06,1.7384887e-05,2.08788071e-05,2.5654016e-05,3.24134751e-05,4.197429e-05
3.6,9.91502155e-06,1.72666228e-05,2.0643753e-05,2.52697982e-05,3.18140022e-05,4.10417061e-05
3.65,9.91038936e-06,1.7152236e-05,2.04172603e-05,2.49011167e-05,3.12414718e-05,4.0156071e-05
3.7,9.90599135e-06,1.70415404e-05,2.01988713e-05,2.45470525e-05,3.06941198e-05,3.93139574e-05
3.75,9.9018148e-06,1.69343614e-05,1.99881605e-05,2.42067573e-05,3.01703317e-05,3.85122614e-05
3.8,9.8978477e-06,1.68305354e-05,1.97847313e-05,2.38794472e-05,2.96686278e-05,3.7748165e-05
3.85,9.89407866e-06,1.67299084e-05,1.95882141e-05,2.35643961e-05,2.91876487e-05,3.70191046e-05
3.9,9.89049691e-06,1.66323359e-05,1.93982637e-05,2.3260931e-05,2.87261439e-05,3.63227431e-05
3.95,9.8870922e-06,1.65376818e-05,1.92145573e-05,2.29684272e-05,2.82829609e-05,3.5656945e-05
4.0,9.88385483e-06,1.64458178e-05,1.9036793e-05,2.26863036e-05,2.78570362e-05,3.50197559e-05
4.05,9.88077557e-06,1.63566232e-05,1.8864688e-05,2.24140196e-05,2.74473864e-05,3.44093835e-05
4.1,9.87784564e-06,1.62699839e-05,1.8697977e-05,2.21510713e-05,2.70531011e-05,3.38241812e-05
4.15,9.87505667e-06,1.61857922e-05,1.8536411e-05,2.18969883e-05,2.66733362e-05,3.32626338e-05
4.2,9.8724007e-06,1.61039466e-05,1.83797562e-05,2.16513314e-05,2.63073081e-05,3.27233446e-05
4.25,9.86987013e-06,1.60243506e-05,1.82277924e-05,2.14136898e-05,2.59542885e-05,3.22050242e-05
4.3,9.86745771e-06,1.59469134e-05,1.80803125e-05,2.11836787e-05,2.56135991e-05,3.17064803e-05
4.35,9.86515649e-06,1.58715485e-05,1.79371215e-05,2.09609376e-05,2.5284608e-05,3.12266089e-05
4.4,9.86295985e-06,1.57981743e-05,1.77980352e-05,2.07451284e-05,2.49667257e-05,3.07643862e-05
4.45,9.86086143e-06,1.57267132e-05,1.766288e-05,2.05359333e-05,2.4659401e-05,3.03188616e-05
4.5,9.85885516e-06,1.56570915e-05,1.75314918e-05,2.03330537e-05,2.4362119e-05,2.98891512e-05
4.55,9.85693518e-06,1.55892395e-05,1.74037156e-05,2.01362087e-05,2.40743973e-05,2.94744321e-05
4.6,9.85509589e-06,1.55230906e-05,1.72794046e-05,1.99451337e-05,2.37957837e-05,2.90739373e-05
4.65,9.85333191e-06,1.54585816e-05,1.715842e-05,1.97595792e-05,2.35258543e-05,2.86869509e-05
4.7,9.85163805e-06,1.53956525e-05,1.704063e-05,1.957931e-05,2.32642107e-05,2.83128043e-05
4.75,9.85000932e-06,1.53342459e-05,1.69259101e-05,1.9404104e-05,2.30104785e-05,2.79508717e-05
4.8,9.84844092e-06,1.52743073e-05,1.68141416e-05,1.92337512e-05,2.27643055e-05,2.76005676e-05
4.85,9.8469282e-06,1.52157847e-05,1.67052124e-05,1.90680532e-05,2.25253601e-05,2.72613428e-05
4.9,9.84546669e-06,1.51586286e-05,1.65990155e-05,1.89068221e-05,2.22933294e-05,2.69326823e-05
4.95,9.84405205e-06,1.51027915e-05,1.64954495e-05,1.874988e-05,2.20679187e-05,2.66141021e-05
5.0,9.8426801e-06,1.50482284e-05,1.63944178e-05,1.85970582e-05,2.18488494e-05,2.63051476e-05
5.05,9.84134677e-06,1.49948959e-05,1.62958284e-05,1.84481969e-05,2.16358584e-05,2.60053906e-05
5.1,9.84004815e-06,1.49427529e-05,1.6199594e-05,1.83031443e-05,2.14286969e-05,2.57144281e-05
5.15,9.8387804e-06,1.48917599e-05,1.61056309e-05,1.81617562e-05,2.12271295e-05,2.54318802e-05
5.2,9.83753983e-06,1.48418791e-05,1.60138597e-05,1.80238957e-05,2.10309332e-05,2.51573884e-05
5.25,9.83632284e-06,1.47930745e-05,1.59242045e-05,1.78894325e-05,2.08398967e-05,2.48906142e-05
5.3,9.83512592e-06,1.47453113e-05,1.58365928e-05,1.77582426e-05,2.06538195e-05,2.46312378e-05
5.35,9.83394566e-06,1.46985564e-05,1.57509555e-05,1.76302081e-05,2.04725114e-05,2.43789569e-05
5.4,9.83277873e-06,1.4652778e-05,1.56672265e-05,1.75052165e-05,2.02957919e-05,2.4133485e-05
5.45,9.83162188e-06,1.46079458e-05,1.55853426e-05,1.73831607e-05,2.01234892e-05,2.38945511e-05
5.5,9.83047196e-06,1.45640303e-05,1.55052433e-05,1.72639384e-05,1.99554402e-05,2.36618983e-05
5.55,9.82932584e-06,1.45210036e-05,1.54268708e-05,1.71474523e-05,1.97914895e-05,2.34352828e-05
5.6,9.82818051e-06,1.44788386e-05,1.53501696e-05,1.7033609e-05,1.96314893e-05,2.32144734e-05
5.65,9.82703299e-06,1.44375096e-05,1.52750868e-05,1.69223198e-05,1.94752987e-05,2.29992503e-05
5.7,9.82588037e-06,1.43969917e-05,1.52015715e-05,1.68134995e-05,1.93227835e-05,2.27894049e-05
5.75,9.82471979e-06,1.43572609e-05,1.5129575e-05,1.6707067e-05,1.91738157e-05,2.25847385e-05
5.8,9.82354845e-06,1.43182942e-05,1.50590505e-05,1.66029444e-05,1.9028273e-05,2.23850624e-05
5.85,9.82236359e-06,1.42800695e-05,1.49899531e-05,1.65010572e-05,1.88860389e-05,2.21901965e-05
5.9,9.82116249e-06,1.42425656e-05,1.49222399e-05,1.64013342e-05,1.87470018e-05,2.19999697e-05
5.95,9.8199425e-06,1.42057619e-05,1.48558693e-05,1.63037072e-05,1.86110554e-05,2.18142185e-05
6.0,9.81870097e-06,1.41696388e-05,1.47908018e-05,1.62081106e-05,1.84780978e-05,2.16327873e-05
6.05,9.81743531e-06,1.41341771e-05,1.47269992e-05,1.61144816e-05,1.83480316e-05,2.14555273e-05
6.1,9.81614296e-06,1.40993586e-05,1.46644246e-05,1.60227601e-05,1.82207635e-05,2.12822967e-05
6.15,9.8148214e-06,1.40651655e-05,1.46030428e-05,1.59328882e-05,1.80962043e-05,2.11129598e-05
6.2,9.81346812e-06,1.4031581e-05,1.45428199e-05,1.58448106e-05,1.79742684e-05,2.09473871e-05
6.25,9.81208064e-06,1.39985884e-05,1.44837231e-05,1.57584737e-05,1.78548739e-05,2.07854547e-05
6.3,9.81065653e-06,1.3966172e-05,1.44257209e-05,1.56738266e-05,1.77379421e-05,2.06270441e-05
6.35,9.80919336e-06,1.39343165e-05,1.4368783e-05,1.55908199e-05,1.76233976e-05,2.04720417e-05
6.4,9.80768872e-06,1.39030071e-05,1.43128801e-05,1.55094062e-05,1.75111681e-05,2.0320339e-05
6.45,9.80614023e-06,1.38722294e-05,1.42579842e-05,1.54295402e-05,1.74011841e-05,2.01718317e-05
6.5,9.80454553e-06,1.38419698e-05,1.4204068e-05,1.53511778e-05,1.72933788e-05,2.00264203e-05
6.55,9.80290227e-06,1.38122148e-05,1.41511053e-05,1.52742769e-05,1.71876882e-05,1.98840089e-05
6.6,9.80120811e-06,1.37829516e-05,1.40990708e-05,1.5198797e-05,1.70840505e-05,1.97445057e-05
