vds,vb1,vb2,vb3,vb4,vb5,vb6
0.0,3.69590487e-05,0.000103062011,0.000153308716,0.000192495583,0.000222221546,0.000243948005
0.05,2.99729666e-05,9.54300075e-05,0.00014509915,0.00018405935,0.000213887463,0.000235953554
0.1,2.32432909e-05,8.80699283e-05,0.000137186448,0.000175915345,0.000205822948,0.000228197377
0.15,1.68689327e-05,8.0968125e-05,0.00012955547,0.000168049541,0.000198016077,0.000220669852
0.2,1.1190249e-05,7.41103938e-05,0.000122190315,0.000160447448,0.000190454725,0.000213361315
0.25,7.00028583e-06,6.74825857e-05,0.000115074084,0.000153093649,0.000183126145,0.000206261751
0.3,4.71340369e-06,6.10718027e-05,0.000108189334,0.000145971787,0.000176016792,0.000199360605
0.35,3.59519199e-06,5.48673592e-05,0.000101518992,0.000139064945,0.000169112392,0.000192646729
0.4,2.97554582e-06,4.88608794e-05,9.50473735e-05,0.000132356283,0.000162398221,0.00018610846
0.45,2.58157317e-06,4.30452167e-05,8.87610049e-05,0.000125829796,0.000155859528,0.000179733813
0.5,2.30729711e-06,3.74125331e-05,8.26490297e-05,0.000119471027,0.000149482025,0.000173510736
0.55,2.10473194e-06,3.19550639e-05,7.67030399e-05,0.000113267653,0.000143252387,0.000167427423
0.6,1.94884037e-06,2.66852059e-05,7.09161916e-05,0.000107209861,0.000137158696,0.000161472622
0.65,1.82514905e-06,2.17103723e-05,6.52814118e-05,0.000101290452,0.000131190816,0.00015563594
0.7,1.7246533e-06,1.73115406e-05,5.9788351e-05,9.55046653e-05,0.000125340633,0.00014990811
0.75,1.64143564e-06,1.37838057e-05,5.44185344e-05,8.98496765e-05,0.000119602183,0.000144281209
0.8,1.57143872e-06,1.11639874e-05,4.91383923e-05,8.4323751e-05,0.000113971618,0.000138748813
0.85,1.51178424e-06,9.27223867e-06,4.3892567e-05,7.89249658e-05,0.000108447045,0.000133306082
0.9,1.46037231e-06,7.8958914e-06,3.86107919e-05,7.36493559e-05,0.000103028203,0.00012794978
0.95,1.41563442e-06,6.87139478e-06,3.32628204e-05,6.84882045e-05,9.77159994e-05,0.00012267821
1.0,1.37637513e-06,6.08841217e-06,2.7977581e-05,6.3424062e-05,9.25118826e-05,0.000117491087
1.05,1.34166736e-06,5.47478903e-06,2.30910118e-05,5.84251429e-05,8.74170187e-05,0.000112389333
1.1,1.31078108e-06,4.98301972e-06,1.8946871e-05,5.34388577e-05,8.24312096e-05,0.000107374814
1.15,1.28313365e-06,4.5811767e-06,1.56644746e-05,4.83896665e-05,7.75514235e-05,0.000102450007
1.2,1.25825441e-06,4.24726732e-06,1.31515921e-05,4.31972948e-05,7.27697338e-05,9.76175901e-05
1.25,1.23575911e-06,3.9657639e-06,1.1239679e-05,3.78408577e-05,6.80703822e-05,9.28799589e-05
1.3,1.21533093e-06,3.72544591e-06,9.77118162e-06,3.24580255e-05,6.34257249e-05,8.82386194e-05
1.35,1.19670639e-06,3.51803136e-06,8.62487059e-06,2.73631149e-05,5.87913795e-05,8.36934149e-05
1.4,1.17966454e-06,3.33728886e-06,7.7137974e-06,2.28871825e-05,5.4103006e-05,7.9241491e-05
1.45,1.16401882e-06,3.17844824e-06,6.97685128e-06,1.91934084e-05,4.92824542e-05,7.48758603e-05
1.5,1.14961056e-06,3.03780082e-06,6.37100218e-06,1.62565473e-05,4.4268513e-05,7.05833805e-05
1.55,1.13630402e-06,2.91242257e-06,5.86559776e-06,1.39538827e-05,3.90824466e-05,6.6341972e-05
1.6,1.12398237e-06,2.79997884e-06,5.43846032e-06,1.21459643e-05,3.38925741e-05,6.21171528e-05
1.65,1.11254457e-06,2.69858413e-06,5.07327285e-06,1.07128196e-05,2.89877027e-05,5.78589108e-05
1.7,1.10190273e-06,2.60669978e-06,4.75782949e-06,9.56172448e-06,2.46392525e-05,5.3502386e-05
1.75,1.09198012e-06,2.52305822e-06,4.48285419e-06,8.62400913e-06,2.09802801e-05,4.8980183e-05
1.8,1.08270939e-06,2.44660616e-06,4.24119258e-06,7.84947918e-06,1.79994775e-05,4.42565995e-05
1.85,1.07403126e-06,2.37646133e-06,4.02725071e-06,7.20139565e-06,1.56051326e-05,3.93812877e-05
1.9,1.06589326e-06,2.31187937e-06,3.83659933e-06,6.6526421e-06,1.3684485e-05,3.45231537e-05
1.95,1.05824888e-06,2.25222794e-06,3.66569066e-06,6.1829706e-06,1.21344155e-05,2.99284867e-05
2.0,1.05105667e-06,2.19696657e-06,3.5116526e-06,5.77706612e-06,1.08710744e-05,2.5815249e-05
2.05,1.04427964e-06,2.14563058e-06,3.37213729e-06,5.42319224e-06,9.82971284e-06,2.22934906e-05
2.1,1.03788462e-06,2.09781833e-06,3.24520812e-06,5.11223958e-06,8.96135931e-06,1.93634436e-05
2.15,1.03184182e-06,2.05318087e-06,3.12925441e-06,4.83705142e-06,8.22915905e-06,1.69595193e-05
2.2,1.0261244e-06,2.01141368e-06,3.02292631e-06,4.59194053e-06,7.60528504e-06,1.4993616e-05
2.25,1.02070812e-06,1.97224976e-06,2.92508452e-06,4.37233898e-06,7.06856711e-06,1.33802938e-05
2.3,1.01557102e-06,1.93545409e-06,2.83476111e-06,4.17454125e-06,6.60274333e-06,1.20467274e-05
2.35,1.01069318e-06,1.90081899e-06,2.75112876e-06,3.9955136e-06,6.19519005e-06,1.09344559e-05
2.4,1.00605646e-06,1.86816026e-06,2.67347627e-06,3.83275095e-06,5.83600263e-06,9.99782233e-06
2.45,1.00164436e-06,1.83731396e-06,2.60118904e-06,3.68416825e-06,5.51732791e-06,9.2015409e-06
2.5,9.97441762e-07,1.80813372e-06,2.53373331e-06,3.54801724e-06,5.23287626e-06,8.51837348e-06
2.55,9.93434868e-07,1.78048843e-06,2.47064335e-06,3.42282193e-06,4.97756192e-06,7.92721069e-06
2.6,9.89611006e-07,1.75426034e-06,2.41151106e-06,3.30732822e-06,4.74723535e-06,7.41158235e-06
2.65,9.85958539e-07,1.72934337e-06,2.35597735e-06,3.2004642e-06,4.53848215e-06,6.95853266e-06
2.7,9.8246676e-07,1.70564174e-06,2.30372502e-06,3.10130851e-06,4.34847044e-06,6.55778064e-06
2.75,9.79125798e-07,1.68306872e-06,2.25447289e-06,3.00906512e-06,4.17483411e-06,6.20109482e-06
2.8,9.75926542e-07,1.6615456e-06,2.20797081e-06,2.92304288e-06,4.01558239e-06,5.88182666e-06
2.85,9.72860566e-07,1.64100079e-06,2.16399557e-06,2.84263898e-06,3.86902953e-06,5.59456036e-06
2.9,9.69920069e-07,1.62136904e-06,2.12234733e-06,2.76732533e-06,3.73373929e-06,5.33484839e-06
2.95,9.67097816e-07,1.60259073e-06,2.08284669e-06,2.69663747e-06,3.60848116e-06,5.09901017e-06
3.0,9.64387087e-07,1.58461131e-06,2.04533211e-06,2.63016534e-06,3.49219517e-06,4.88397755e-06
3.05,9.61781637e-07,1.56738075e-06,2.00965781e-06,2.56754556e-06,3.38396375e-06,4.68717534e-06
3.1,9.59275648e-07,1.55085309e-06,1.97569185e-06,2.50845503e-06,3.28298882e-06,4.5064281e-06
3.15,9.56863698e-07,1.53498604e-06,1.94331455e-06,2.45260556e-06,3.1885732e-06,4.33988692e-06
3.2,9.54540726e-07,1.5197406e-06,1.91241711e-06,2.39973928e-06,3.10010527e-06,4.18597141e-06
3.25,9.52302002e-07,1.50508079e-06,1.88290039e-06,2.34962478e-06,3.01704639e-06,4.04332344e-06
3.3,9.50143103e-07,1.49097331e-06,1.85467389e-06,2.30205383e-06,2.93892043e-06,3.91076995e-06
3.35,9.48059884e-07,1.47738734e-06,1.82765481e-06,2.25683858e-06,2.86530499e-06,3.78729296e-06
3.4,9.4604846e-07,1.4642943e-06,1.80176723e-06,2.21380908e-06,2.79582415e-06,3.67200502e-06
3.45,9.44105185e-07,1.45166764e-06,1.77694147e-06,2.17281129e-06,2.73014227e-06,3.56412924e-06
3.5,9.42226633e-07,1.43948266e-06,1.75311342e-06,2.13370521e-06,2.66795876e-06,3.4629828e-06
3.55,9.40409581e-07,1.42771639e-06,1.73022401e-06,2.09636334e-06,2.6090037e-06,3.36796325e-06
3.6,9.38650996e-07,1.41634738e-06,1.70821873e-06,2.06066932e-06,2.55303401e-06,3.27853717e-06
3.65,9.36948021e-07,1.40535565e-06,1.68704717e-06,2.02651677e-06,2.49983022e-06,3.19423067e-06
3.7,9.3529796e-07,1.39472249e-06,1.66666269e-06,1.9938082e-06,2.44919371e-06,3.11462134e-06
3.75,9.33698268e-07,1.38443042e-06,1.64702204e-06,1.96245415e-06,2.40094432e-06,3.03933157e-06
3.8,9.32146541e-07,1.37446308e-06,1.62808508e-06,1.93237234e-06,2.35491821e-06,2.96802276e-06
3.85,9.30640505e-07,1.36480509e-06,1.60981447e-06,1.90348702e-06,2.31096613e-06,2.90039048e-06
3.9,9.29178009e-07,1.35544206e-06,1.59217549e-06,1.87572828e-06,2.26895178e-06,2.83616031e-06
3.95,9.27757014e-07,1.34636045e-06,1.57513576e-06,1.84903155e-06,2.22875049e-06,2.77508422e-06
4.0,9.26375587e-07,1.33754755e-06,1.55866506e-06,1.82333706e-06,2.19024799e-06,2.71693753e-06
4.05,9.25031897e-07,1.32899136e-06,1.54273519e-06,1.79858943e-06,2.15333936e-06,2.66151624e-06
4.1,9.23724201e-07,1.32068062e-06,1.52731974e-06,1.77473728e-06,2.11792809e-06,2.60863471e-06
4.15,9.22450845e-07,1.31260468e-06,1.51239402e-06,1.75173283e-06,2.08392527e-06,2.55812365e-06
4.2,9.21210257e-07,1.30475351e-06,1.49793485e-06,1.72953167e-06,2.05124884e-06,2.50982838e-06
4.25,9.20000938e-07,1.29711763e-06,1.48392052e-06,1.7080924e-06,2.01982297e-06,2.46360731e-06
4.3,9.18821464e-07,1.28968809e-06,1.47033063e-06,1.6873764e-06,1.98957747e-06,2.41933056e-06
4.35,9.17670475e-07,1.28245642e-06,1.45714599e-06,1.66734762e-06,1.96044726e-06,2.3768788e-06
4.4,9.16546675e-07,1.27541458e-06,1.44434856e-06,1.64797235e-06,1.93237197e-06,2.33614222e-06
4.45,9.15448827e-07,1.26855499e-06,1.43192135e-06,1.62921904e-06,1.90529545e-06,2.29701958e-06
4.5,9.1437575e-07,1.26187045e-06,1.41984834e-06,1.61105815e-06,1.87916546e-06,2.25941739e-06
4.55,9.13326314e-07,1.25535412e-06,1.40811441e-06,1.59346193e-06,1.85393333e-06,2.22324921e-06
4.6,9.12299439e-07,1.24899952e-06,1.39670531e-06,1.57640438e-06,1.82955365e-06,2.18843501e-06
4.65,9.11294091e-07,1.24280049e-06,1.38560755e-06,1.55986102e-06,1.80598401e-06,2.15490053e-06
4.7,9.10309281e-07,1.23675117e-06,1.37480838e-06,1.54380887e-06,1.78318473e-06,2.12257685e-06
4.75,9.0934406e-07,1.23084601e-06,1.36429573e-06,1.52822626e-06,1.76111871e-06,2.09139986e-06
4.8,9.08397518e-07,1.22507969e-06,1.35405819e-06,1.51309278e-06,1.73975114e-06,2.06130987e-06
4.85,9.07468783e-07,1.21944717e-06,1.34408493e-06,1.49838919e-06,1.71904941e-06,2.03225127e-06
4.9,9.06557015e-07,1.21394365e-06,1.33436566e-06,1.48409733e-06,1.69898287e-06,2.00417212e-06
4.95,9.05661411e-07,1.20856453e-06,1.32489065e-06,1.47020003e-06,1.67952272e-06,1.97702392e-06
5.0,9.04781195e-07,1.20330546e-06,1.31565064e-06,1.45668106e-06,1.66064188e-06,1.95076128e-06
5.05,9.03915624e-07,1.19816225e-06,1.30663684e-06,1.44352509e-06,1.64231485e-06,1.92534171e-06
5.1,9.0306398e-07,1.19313092e-06,1.29784087e-06,1.43071758e-06,1.62451757e-06,1.9007254e-06
5.15,9.02225572e-07,1.18820767e-06,1.28925477e-06,1.41824475e-06,1.6072274e-06,1.87687496e-06
5.2,9.01399736e-07,1.18338885e-06,1.28087097e-06,1.40609356e-06,1.59042292e-06,1.8537553e-06
5.25,9.0058583e-07,1.17867099e-06,1.27268226e-06,1.39425161e-06,1.57408391e-06,1.83133341e-06
5.3,8.99783235e-07,1.17405075e-06,1.26468173e-06,1.38270713e-06,1.55819126e-06,1.80957825e-06
5.35,8.98991352e-07,1.16952495e-06,1.25686284e-06,1.37144897e-06,1.54272689e-06,1.78846058e-06
5.4,8.98209605e-07,1.16509054e-06,1.24921932e-06,1.36046647e-06,1.52767366e-06,1.76795282e-06
5.45,8.97437435e-07,1.16074458e-06,1.2417452e-06,1.34974956e-06,1.51301535e-06,1.74802898e-06
5.5,8.96674302e-07,1.15648428e-06,1.23443475e-06,1.33928859e-06,1.49873656e-06,1.72866449e-06
5.55,8.95919685e-07,1.15230694e-06,1.22728251e-06,1.32907441e-06,1.4848227e-06,1.70983615e-06
5.6,8.95173076e-07,1.14820999e-06,1.22028328e-06,1.31909828e-06,1.47125989e-06,1.69152202e-06
5.65,8.94433987e-07,1.14419096e-06,1.21343205e-06,1.30935188e-06,1.45803497e-06,1.67370133e-06
5.7,8.93701942e-07,1.14024745e-06,1.20672404e-06,1.29982726e-06,1.44513539e-06,1.65635441e-06
5.75,8.92976481e-07,1.13637719e-06,1.20015467e-06,1.29051684e-06,1.43254926e-06,1.63946262e-06
5.8,8.92257155e-07,1.13257798e-06,1.19371956e-06,1.28141338e-06,1.42026522e-06,1.62300828e-06
5.85,8.91543532e-07,1.12884772e-06,1.18741451e-06,1.27250995e-06,1.40827246e-06,1.60697461e-06
5.9,8.90835189e-07,1.12518436e-06,1.18123548e-06,1.26379994e-06,1.39656069e-06,1.59134567e-06
5.95,8.90131716e-07,1.12158597e-06,1.1751786e-06,1.25527702e-06,1.3851201e-06,1.57610631e-06
6.0,8.89432714e-07,1.11805066e-06,1.16924017e-06,1.24693513e-06,1.3739413e-06,1.56124214e-06
6.05,8.88737796e-07,1.11457662e-06,1.16341662e-06,1.23876848e-06,1.36301535e-06,1.54673944e-06
6.1,8.88046584e-07,1.11116211e-06,1.15770453e-06,1.2307715e-06,1.35233372e-06,1.53258519e-06
6.15,8.8735871e-07,1.10780545e-06,1.1521006e-06,1.22293887e-06,1.34188824e-06,1.51876693e-06
6.2,8.86673815e-07,1.10450502e-06,1.14660169e-06,1.21526549e-06,1.3316711e-06,1.50527284e-06
6.25,8.85991549e-07,1.10125926e-06,1.14120474e-06,1.20774647e-06,1.32167484e-06,1.4920916e-06
6.3,8.85311572e-07,1.09806667e-06,1.13590683e-06,1.2003771e-06,1.31189231e-06,1.47921245e-06
6.35,8.8463355e-07,1.0949258e-06,1.13070515e-06,1.19315288e-06,1.30231667e-06,1.46662507e-06
6.4,8.83957158e-07,1.09183524e-06,1.12559699e-06,1.18606948e-06,1.29294137e-06,1.45431964e-06
6.45,8.83282079e-07,1.08879364e-06,1.12057974e-06,1.17912273e-06,1.28376012e-06,1.44228677e-06
6.5,8.82608002e-07,1.08579971e-06,1.11565088e-06,1.17230864e-06,1.27476691e-06,1.43051746e-06
6.55,8.81934624e-07,1.08285217e-06,1.11080799e-06,1.16562336e-06,1.26595596e-06,1.41900313e-06
6.6,8.81261647e-07,1.0799498e-06,1.10604874e-06,1.15906319e-06,1.25732172e-06,1.40773553e-06
