vds,vb1,vb2,vb3,vb4,vb5,vb6
0.0,1.75911611e-05,9.16557999e-05,0.000155110155,0.000206001816,0.000244260108,0.000271146375
0.05,1.30105012e-05,8.66983425e-05,0.000150431814,0.000201712263,0.000240406993,0.000267737944
0.1,8.54116694e-06,8.17551258e-05,0.000145767673,0.000197435497,0.000236564715,0.00026433836
0.15,4.47727367e-06,7.68261818e-05,0.000141117674,0.000193171466,0.000232733233,0.000260947592
0.2,1.66071535e-06,7.19115795e-05,0.000136481759,0.000188920116,0.000228912506,0.000257565609
0.25,5.26182638e-07,6.70114448e-05,0.00013185987,0.000184681395,0.000225102492,0.000254192381
0.3,2.05188879e-07,6.21259921e-05,0.000127251951,0.000180455252,0.00022130315,0.000250827877
0.35,1.07460552e-07,5.72555791e-05,0.000122657945,0.000176241634,0.00021751444,0.000247472065
0.4,7.09711781e-08,5.24008006e-05,0.000118077796,0.000172040488,0.000213736319,0.000244124917
0.45,5.46684908e-08,4.75626572e-05,0.000113511449,0.000167851761,0.000209968748,0.0002407864
0.5,4.6314178e-08,4.27428695e-05,0.00010895885,0.000163675403,0.000206211685,0.000237456485
0.55,4.1564557e-08,3.79444813e-05,0.000104419947,0.000159511358,0.000202465089,0.000234135142
0.6,3.86392982e-08,3.31730666e-05,9.98946902e-05,0.000155359575,0.00019872892,0.00023082234
0.65,3.67204414e-08,2.84392223e-05,9.53830329e-05,0.00015122,0.000195003137,0.000227518049
0.7,3.53963673e-08,2.37638301e-05,9.08849346e-05,0.000147092578,0.000191287698,0.000224222239
0.75,3.4444105e-08,1.9189077e-05,8.64003621e-05,0.000142977256,0.000187582564,0.000220934881
0.8,3.37353302e-08,1.47997619e-05,8.19292946e-05,0.000138873978,0.000183887692,0.000217655943
0.85,3.3192358e-08,1.07545531e-05,7.74717292e-05,0.000134782687,0.000180203042,0.000214385396
0.9,3.27661024e-08,7.2961627e-06,7.30276917e-05,0.000130703328,0.000176528572,0.000211123211
0.95,3.24243893e-08,4.66156316e-06,6.85972524e-05,0.000126635841,0.000172864242,0.000207869356
1.0,3.21454503e-08,2.9021445e-06,6.41805525e-05,0.000122580167,0.000169210008,0.000204623804
1.05,3.19141431e-08,1.84073153e-06,5.97778482e-05,0.000118536245,0.00016556583,0.000201386522
1.1,3.17196745e-08,1.22787792e-06,5.53895837e-05,0.000114504012,0.000161931664,0.000198157482
1.15,3.15541833e-08,8.71853886e-07,5.10165186e-05,0.000110483402,0.000158307467,0.000194936654
1.2,3.14118323e-08,6.57916394e-07,4.66599492e-05,0.000106474346,0.000154693197,0.000191724007
1.25,3.12882116e-08,5.23585329e-07,4.23221043e-05,0.000102476774,0.000151088809,0.000188519512
1.3,3.11799369e-08,4.35389884e-07,3.80068612e-05,9.84906098e-05,0.000147494258,0.000185323138
1.35,3.10843744e-08,3.75042562e-07,3.37210565e-05,9.4515776e-05,0.000143909499,0.000182134855
1.4,3.0999448e-08,3.3220436e-07,2.94768828e-05,9.05521891e-05,0.000140334485,0.000178954633
1.45,3.09235016e-08,3.00801873e-07,2.529617e-05,8.6599762e-05,0.000136769168,0.000175782441
1.5,3.08551999e-08,2.77130055e-07,2.1217544e-05,8.26584029e-05,0.000133213498,0.000172618249
1.55,3.07934559e-08,2.58847289e-07,1.7306616e-05,7.87280172e-05,0.000129667424,0.000169462025
1.6,3.07373764e-08,2.44425057e-07,1.36652563e-05,7.48085087e-05,0.000126130894,0.000166313738
1.65,3.06862214e-08,2.32836039e-07,1.04271146e-05,7.08997846e-05,0.000122603851,0.000163173357
1.7,3.0639373e-08,2.23371398e-07,7.72220841e-06,6.70017631e-05,0.000119086238,0.000160040849
1.75,3.05963117e-08,2.15530364e-07,5.61745994e-06,6.31143883e-05,0.000115577994,0.000156916182
1.8,3.05565973e-08,2.08951572e-07,4.08160788e-06,5.92376562e-05,0.000112079053,0.000153799324
1.85,3.0519855e-08,2.03369212e-07,3.00946906e-06,5.53716612e-05,0.000108589346,0.000150690241
1.9,3.04857637e-08,1.98584352e-07,2.27597962e-06,5.15166771e-05,0.000105108798,0.000147588898
1.95,3.04540466e-08,1.94445762e-07,1.77415654e-06,4.76733e-05,0.000101637329,0.000144495261
2.0,3.0424464e-08,1.90836818e-07,1.42625788e-06,4.38427004e-05,9.81748496e-05,0.000141409294
2.05,3.03968073e-08,1.87666414e-07,1.18015047e-06,4.00270655e-05,9.47212645e-05,0.00013833096
2.1,3.03708941e-08,1.84862523e-07,1.00201754e-06,3.62303743e-05,9.12764667e-05,0.000135260221
2.15,3.03465646e-08,1.82367578e-07,8.70067524e-07,3.24597365e-05,8.78403381e-05,0.000132197037
2.2,3.03236775e-08,1.80135107e-07,7.70146018e-07,2.87276331e-05,8.44127465e-05,0.000129141369
2.25,3.03021081e-08,1.78127242e-07,6.92916749e-07,2.50554445e-05,8.0993544e-05,0.000126093173
2.3,3.02817456e-08,1.76312866e-07,6.32104842e-07,2.14783678e-05,7.75825642e-05,0.000123052403
2.35,3.02624913e-08,1.74666203e-07,5.83408273e-07,1.80506678e-05,7.41796199e-05,0.000120019014
2.4,3.02442569e-08,1.73165743e-07,5.43818707e-07,1.48476618e-05,7.07845005e-05,0.000116992954
2.45,3.02269635e-08,1.71793414e-07,5.11192084e-07,1.19581634e-05,6.73969713e-05,0.000113974171
2.5,3.02105398e-08,1.70533937e-07,4.83972659e-07,9.46326665e-06,6.40167733e-05,0.000110962607
2.55,3.01949219e-08,1.69374311e-07,4.61012497e-07,7.40860616e-06,6.06436275e-05,0.000107958201
2.6,3.01800517e-08,1.68303419e-07,4.41451298e-07,5.78826877e-06,5.72772467e-05,0.000104960886
2.65,3.01658768e-08,1.67311698e-07,4.24634984e-07,4.55186914e-06,5.39173592e-05,0.00010197059
2.7,3.01523494e-08,1.66390885e-07,4.10059605e-07,3.62684616e-06,5.0563757e-05,9.89872327e-05
2.75,3.01394263e-08,1.65533806e-07,3.97332088e-07,2.93978387e-06,4.72163842e-05,9.60107264e-05
2.8,3.01270678e-08,1.64734208e-07,3.8614234e-07,2.42825673e-06,4.38754981e-05,9.30409738e-05
2.85,3.01152377e-08,1.63986611e-07,3.76243148e-07,2.04406472e-06,4.05419527e-05,9.00778658e-05
2.9,3.01039029e-08,1.63286203e-07,3.67435503e-07,1.75189332e-06,3.72176892e-05,8.71212804e-05
2.95,3.00930328e-08,1.62628735e-07,3.59557751e-07,1.52652256e-06,3.39065629e-05,8.41710795e-05
3.0,3.00825996e-08,1.62010446e-07,3.52477469e-07,1.35010417e-06,3.06156835e-05,8.12271066e-05
3.05,3.00725775e-08,1.61427997e-07,3.46085337e-07,1.20999495e-06,2.7357464e-05,7.82891833e-05
3.1,3.00629426e-08,1.60878409e-07,3.40290444e-07,1.09717731e-06,2.41524521e-05,7.53571056e-05
3.15,3.00536731e-08,1.60359024e-07,3.35016672e-07,1.00515387e-06,2.10325691e-05,7.24306394e-05
3.2,3.00447486e-08,1.59867455e-07,3.30199888e-07,9.29187258e-07,1.80434221e-05,6.95095155e-05
3.25,3.00361502e-08,1.5940156e-07,3.25785726e-07,8.65779564e-07,1.524311e-05,6.65934241e-05
3.3,3.00278605e-08,1.58959406e-07,3.21727849e-07,8.12315101e-07,1.26947435e-05,6.36820096e-05
3.35,3.00198631e-08,1.5853925e-07,3.1798655e-07,7.668134e-07,1.04526756e-05,6.07748653e-05
3.4,3.00121431e-08,1.58139511e-07,3.14527637e-07,7.27756864e-07,8.54777811e-06,5.78715303e-05
3.45,3.00046862e-08,1.57758755e-07,3.11321529e-07,6.93969235e-07,6.97986942e-06,5.49714902e-05
3.5,2.99974793e-08,1.57395678e-07,3.08342521e-07,6.64528909e-07,5.7211912e-06,5.20741856e-05
3.55,2.99905101e-08,1.57049092e-07,3.05568185e-07,6.3870642e-07,4.72739328e-06,4.91790357e-05
3.6,2.99837671e-08,1.56717912e-07,3.02978872e-07,6.15918828e-07,3.94929471e-06,4.62854886e-05
3.65,2.99772396e-08,1.56401143e-07,3.00557305e-07,5.95696091e-07,3.34102845e-06,4.33931179e-05
3.7,2.99709175e-08,1.56097876e-07,2.98288238e-07,5.77655991e-07,2.86386101e-06,4.05017972e-05
3.75,2.99647912e-08,1.55807275e-07,2.96158175e-07,5.61485263e-07,2.48695581e-06,3.76120042e-05
3.8,2.99588519e-08,1.55528571e-07,2.94155125e-07,5.4692525e-07,2.18658467e-06,3.47253279e-05
3.85,2.99530913e-08,1.55261054e-07,2.92268409e-07,5.33760894e-07,1.94481459e-06,3.18452815e-05
3.9,2.99475014e-08,1.55004073e-07,2.90488481e-07,5.21812214e-07,1.74819444e-06,2.89785323e-05
3.95,2.99420749e-08,1.54757021e-07,2.8880679e-07,5.10927662e-07,1.58664318e-06,2.6136616e-05
4.0,2.99368047e-08,1.54519341e-07,2.87215656e-07,5.00978888e-07,1.45257944e-06,2.33380255e-05
4.05,2.99316844e-08,1.54290513e-07,2.85708159e-07,4.91856599e-07,1.34026686e-06,2.06101716e-05
4.1,2.99267075e-08,1.54070056e-07,2.84278053e-07,4.83467252e-07,1.24533167e-06,1.79901229e-05
4.15,2.99218683e-08,1.53857524e-07,2.82919687e-07,4.75730391e-07,1.16441056e-06,1.55225999e-05
4.2,2.99171612e-08,1.53652501e-07,2.81627934e-07,4.68576502e-07,1.09489407e-06,1.32541563e-05
4.25,2.9912581e-08,1.53454598e-07,2.80398136e-07,4.61945267e-07,1.03473943e-06,1.1224365e-05
4.3,2.99081225e-08,1.53263454e-07,2.79226051e-07,4.55784123e-07,9.82333211e-07,9.4572413e-06
4.35,2.99037811e-08,1.53078732e-07,2.78107808e-07,4.50047098e-07,9.36390114e-07,7.95682244e-06
4.4,2.98995523e-08,1.52900116e-07,2.77039868e-07,4.44693825e-07,8.95877678e-07,6.70861493e-06
4.45,2.98954319e-08,1.5272731e-07,2.76018991e-07,4.39688742e-07,8.59959933e-07,5.68534551e-06
4.5,2.98914157e-08,1.52560038e-07,2.75042203e-07,4.35000411e-07,8.27954857e-07,4.85386007e-06
4.55,2.98874999e-08,1.52398041e-07,2.74106773e-07,4.30600951e-07,7.99302009e-07,4.18070615e-06
4.6,2.98836809e-08,1.52241073e-07,2.73210185e-07,4.26465564e-07,7.73537699e-07,3.63551628e-06
4.65,2.98799552e-08,1.52088907e-07,2.7235012e-07,4.22572126e-07,7.50275792e-07,3.19246027e-06
4.7,2.98763194e-08,1.51941327e-07,2.71524439e-07,4.18900846e-07,7.29192764e-07,2.83044007e-06
4.75,2.98727704e-08,1.51798131e-07,2.70731162e-07,4.15433973e-07,7.10015971e-07,2.53264099e-06
4.8,2.98693052e-08,1.51659126e-07,2.69968457e-07,4.12155547e-07,6.92514379e-07,2.28584647e-06
4.85,2.98659208e-08,1.51524134e-07,2.69234624e-07,4.0905118e-07,6.76491197e-07,2.0797365e-06
4.9,2.98626146e-08,1.51392985e-07,2.68528087e-07,4.06107875e-07,6.6177797e-07,1.90626657e-06
4.95,2.98593839e-08,1.51265516e-07,2.67847378e-07,4.03313861e-07,6.48229824e-07,1.75915606e-06
5.0,2.98562261e-08,1.51141578e-07,2.67191135e-07,4.0065846e-07,6.35721612e-07,1.63348311e-06
5.05,2.9853139e-08,1.51021026e-07,2.66558085e-07,3.9813196e-07,6.2414477e-07,1.52537079e-06
5.1,2.98501201e-08,1.50903723e-07,2.65947042e-07,3.95725515e-07,6.13404743e-07,1.43174693e-06
5.15,2.98471674e-08,1.50789543e-07,2.65356898e-07,3.9343105e-07,6.03418864e-07,1.35016126e-06
5.2,2.98442786e-08,1.50678361e-07,2.64786619e-07,3.9124118e-07,5.94114597e-07,1.27864638e-06
5.25,2.98414518e-08,1.50570063e-07,2.64235234e-07,3.89149141e-07,5.85428074e-07,1.21561187e-06
5.3,2.98386851e-08,1.50464539e-07,2.63701836e-07,3.87148726e-07,5.77302876e-07,1.15976344e-06
5.35,2.98359765e-08,1.50361683e-07,2.63185573e-07,3.85234229e-07,5.69689007e-07,1.11004085e-06
5.4,2.98333243e-08,1.50261398e-07,2.62685647e-07,3.83400399e-07,5.62542028e-07,1.06557003e-06
5.45,2.98307269e-08,1.50163587e-07,2.62201306e-07,3.81642395e-07,5.5582233e-07,1.02562598e-06
5.5,2.98281825e-08,1.50068161e-07,2.61731843e-07,3.79955746e-07,5.49494509e-07,9.89603768e-07
5.55,2.98256896e-08,1.49975036e-07,2.61276596e-07,3.78336319e-07,5.43526838e-07,9.56995769e-07
5.6,2.98232467e-08,1.49884128e-07,2.60834936e-07,3.76780288e-07,5.37890813e-07,9.27373723e-07
5.65,2.98208523e-08,1.4979536e-07,2.60406275e-07,3.75284104e-07,5.32560766e-07,9.00374446e-07
5.7,2.98185051e-08,1.49708659e-07,2.59990055e-07,3.73844475e-07,5.27513525e-07,8.75688417e-07
5.75,2.98162036e-08,1.49623953e-07,2.5958575e-07,3.72458338e-07,5.22728131e-07,8.53050609e-07
5.8,2.98139466e-08,1.49541174e-07,2.59192863e-07,3.71122847e-07,5.18185581e-07,8.3223307e-07
5.85,2.98117329e-08,1.49460258e-07,2.58810924e-07,3.69835347e-07,5.13868613e-07,8.13038901e-07
5.9,2.98095612e-08,1.49381143e-07,2.58439488e-07,3.68593363e-07,5.09761515e-07,7.95297328e-07
5.95,2.98074304e-08,1.49303771e-07,2.58078134e-07,3.67394584e-07,5.05849959e-07,7.78859661e-07
6.0,2.98053393e-08,1.49228083e-07,2.57726463e-07,3.66236852e-07,5.02120853e-07,7.63595953e-07
6.05,2.9803287e-08,1.49154028e-07,2.57384095e-07,3.65118143e-07,4.98562218e-07,7.49392241e-07
6.1,2.98012723e-08,1.49081552e-07,2.57050671e-07,3.64036566e-07,4.95163071e-07,7.36148238e-07
6.15,2.97992943e-08,1.49010605e-07,2.5672585e-07,3.62990346e-07,4.91913327e-07,7.23775404e-07
6.2,2.9797352e-08,1.48941141e-07,2.56409307e-07,3.61977817e-07,4.88803711e-07,7.12195332e-07
6.25,2.97954444e-08,1.48873114e-07,2.56100735e-07,3.60997415e-07,4.85825679e-07,7.01338382e-07
6.3,2.97935708e-08,1.48806479e-07,2.55799839e-07,3.6004767e-07,4.82971351e-07,6.91142525e-07
6.35,2.97917301e-08,1.48741195e-07,2.5550634e-07,3.59127199e-07,4.80233446e-07,6.81552359e-07
6.4,2.97899216e-08,1.48677222e-07,2.55219972e-07,3.58234697e-07,4.77605231e-07,6.72518278e-07
6.45,2.97881444e-08,1.48614519e-07,2.54940482e-07,3.57368938e-07,4.75080468e-07,6.63995748e-07
6.5,2.97863978e-08,1.48553052e-07,2.54667627e-07,3.56528762e-07,4.72653372e-07,6.55944699e-07
6.55,2.9784681e-08,1.48492782e-07,2.54401177e-07,3.55713076e-07,4.7031857e-07,6.48328989e-07
6.6,2.97829932e-08,1.48433677e-07,2.54140912e-07,3.54920848e-07,4.68071067e-07,6.41115953e-07
