vds,vb1,vb2,vb3,vb4,vb5,vb6
0.0,3.60656613e-06,1.80071593e-05,3.03722788e-05,4.03174843e-05,4.78225292e-05,5.31254553e-05
0.05,2.71356541e-06,1.70473512e-05,2.94658087e-05,3.94855211e-05,4.70743515e-05,5.24627712e-05
0.1,1.83863561e-06,1.60902627e-05,2.85620432e-05,3.86559922e-05,4.63282381e-05,5.18017743e-05
0.15,1.02613001e-06,1.51358996e-05,2.76609714e-05,3.78288877e-05,4.55841813e-05,5.11424586e-05
0.2,4.16052701e-07,1.41842739e-05,2.67625827e-05,3.70041981e-05,4.48421734e-05,5.04848184e-05
0.25,1.35438179e-07,1.3235408e-05,2.58668663e-05,3.61819133e-05,4.41022067e-05,4.98288479e-05
0.3,5.07432032e-08,1.22893397e-05,2.49738115e-05,3.53620239e-05,4.33642736e-05,4.91745415e-05
0.35,2.52467702e-08,1.13461321e-05,2.40834079e-05,3.45445199e-05,4.26283662e-05,4.85218933e-05
0.4,1.5995914e-08,1.04058888e-05,2.31956451e-05,3.37293916e-05,4.18944771e-05,4.78708976e-05
0.45,1.19691119e-08,9.46878324e-06,2.23105129e-05,3.29166292e-05,4.11625985e-05,4.72215489e-05
0.5,9.94811124e-09,8.53511005e-06,2.14280012e-05,3.21062229e-05,4.04327229e-05,4.65738413e-05
0.55,8.81779131e-09,7.60538461e-06,2.05481005e-05,3.12981629e-05,3.97048425e-05,4.59277693e-05
0.6,8.13062665e-09,6.68053831e-06,1.96708015e-05,3.04924394e-05,3.89789498e-05,4.52833271e-05
0.65,7.68456965e-09,5.76231738e-06,1.87960957e-05,2.96890422e-05,3.82550371e-05,4.46405092e-05
0.7,7.37940113e-09,4.85411712e-06,1.79239755e-05,2.88879614e-05,3.75330968e-05,4.39993099e-05
0.75,7.16148005e-09,3.96272983e-06,1.70544348e-05,2.8089187e-05,3.68131213e-05,4.33597236e-05
0.8,7.00024403e-09,3.10180927e-06,1.61874696e-05,2.72927086e-05,3.60951029e-05,4.27217446e-05
0.85,6.87734856e-09,2.29748071e-06,1.53230792e-05,2.64985158e-05,3.5379034e-05,4.20853675e-05
0.9,6.7812871e-09,1.5924437e-06,1.44612678e-05,2.57065982e-05,3.46649068e-05,4.14505865e-05
0.95,6.70456528e-09,1.03541581e-06,1.36020473e-05,2.49169449e-05,3.39527136e-05,4.08173962e-05
1.0,6.64214049e-09,6.48839055e-07,1.2745442e-05,2.4129545e-05,3.32424466e-05,4.01857909e-05
1.05,6.59052215e-09,4.09203325e-07,1.18914954e-05,2.33443872e-05,3.2534098e-05,3.9555765e-05
1.1,6.547233e-09,2.69343315e-07,1.10402828e-05,2.25614599e-05,3.18276599e-05,3.89273129e-05
1.15,6.51047564e-09,1.88236835e-07,1.01919317e-05,2.17807511e-05,3.11231243e-05,3.8300429e-05
1.2,6.47892005e-09,1.39900874e-07,9.3466579e-06,2.10022483e-05,3.04204832e-05,3.76751078e-05
1.25,6.45156453e-09,1.09871653e-07,8.50482879e-06,2.02259386e-05,2.97197283e-05,3.70513436e-05
1.3,6.42764257e-09,9.03681978e-08,7.66707701e-06,1.94518083e-05,2.90208513e-05,3.64291308e-05
1.35,6.40655915e-09,7.71571639e-08,6.83450721e-06,1.86798434e-05,2.83238438e-05,3.58084636e-05
1.4,6.38784628e-09,6.78637796e-08,6.00907309e-06,1.79100288e-05,2.76286971e-05,3.51893366e-05
1.45,6.37113151e-09,6.11055046e-08,5.19425541e-06,1.71423489e-05,2.69354024e-05,3.45717439e-05
1.5,6.35611512e-09,5.60465065e-08,4.39622384e-06,1.63767873e-05,2.62439505e-05,3.39556798e-05
1.55,6.34255355e-09,5.21630484e-08,3.62560403e-06,1.56133272e-05,2.5554332e-05,3.33411385e-05
1.6,6.33024701e-09,4.91159604e-08,2.899465e-06,1.48519513e-05,2.48665372e-05,3.27281142e-05
1.65,6.31903024e-09,4.66789346e-08,2.2417441e-06,1.40926432e-05,2.41805559e-05,3.21166011e-05
1.7,6.30876543e-09,4.46968476e-08,1.6787944e-06,1.33353879e-05,2.34963775e-05,3.15065931e-05
1.75,6.29933685e-09,4.30607625e-08,1.22898635e-06,1.25801749e-05,2.28139908e-05,3.08980843e-05
1.8,6.29064663e-09,4.16924922e-08,8.93146163e-07,1.18270018e-05,2.2133384e-05,3.02910685e-05
1.85,6.28261149e-09,4.05348061e-08,6.55130748e-07,1.1075882e-05,2.14545444e-05,2.96855395e-05
1.9,6.27516014e-09,3.95450635e-08,4.9121815e-07,1.03268572e-05,2.07774587e-05,2.9081491e-05
1.95,6.26823124e-09,3.86909789e-08,3.79091579e-07,9.58001993e-06,2.01021121e-05,2.84789165e-05
2.0,6.26177167e-09,3.79477478e-08,3.01699044e-07,8.83555218e-06,1.9428489e-05,2.78778094e-05
2.05,6.25573531e-09,3.72960577e-08,2.47312057e-07,8.09379384e-06,1.87565721e-05,2.72781628e-05
2.1,6.25008182e-09,3.6720688e-08,2.08240434e-07,7.35536172e-06,1.80863424e-05,2.66799699e-05
2.15,6.24477586e-09,3.62095085e-08,1.79516907e-07,6.62135566e-06,1.74177788e-05,2.60832232e-05
2.2,6.23978628e-09,3.57527524e-08,1.57922509e-07,5.8937074e-06,1.67508582e-05,2.54879153e-05
2.25,6.23508556e-09,3.53424807e-08,1.41344125e-07,5.17574445e-06,1.60855544e-05,2.48940384e-05
2.3,6.23064928e-09,3.49721842e-08,1.28369962e-07,4.47302222e-06,1.54218381e-05,2.43015842e-05
2.35,6.22645568e-09,3.46364819e-08,1.18038274e-07,3.79434324e-06,1.47596767e-05,2.37105441e-05
2.4,6.22248534e-09,3.43308927e-08,1.0968083e-07,3.15251457e-06,1.40990332e-05,2.31209089e-05
2.45,6.21872088e-09,3.40516582e-08,1.02824336e-07,2.56383224e-06,1.34398666e-05,2.2532669e-05
2.5,6.21514664e-09,3.37956056e-08,9.7127391e-08,2.04515008e-06,1.27821315e-05,2.19458141e-05
2.55,6.21174855e-09,3.35600404e-08,9.23394843e-08,1.6087882e-06,1.2125779e-05,2.1360333e-05
2.6,6.20851388e-09,3.33426609e-08,8.82738455e-08,1.25805646e-06,1.14707576e-05,2.07762138e-05
2.65,6.20543109e-09,3.31414908e-08,8.47891573e-08,9.86625141e-07,1.08170176e-05,2.01934433e-05
2.7,6.20248974e-09,3.29548241e-08,8.17770244e-08,7.81863348e-07,1.01645174e-05,1.96120074e-05
2.75,6.19968029e-09,3.27811819e-08,7.91532491e-08,6.293185e-07,9.51323696e-06,1.90318904e-05
2.8,6.19699407e-09,3.26192756e-08,7.68516629e-08,5.15856973e-07,8.86320124e-06,1.84530749e-05
2.85,6.19442313e-09,3.24679786e-08,7.48197021e-08,4.30944077e-07,8.21452242e-06,1.78755418e-05
2.9,6.19196022e-09,3.23263013e-08,7.30151917e-08,3.66696446e-07,7.56747262e-06,1.72992693e-05
2.95,6.18959867e-09,3.21933715e-08,7.14039776e-08,3.17424446e-07,6.92260765e-06,1.67242334e-05
3.0,6.18733235e-09,3.20684179e-08,6.99581621e-08,2.79085646e-07,6.28097086e-06,1.61504064e-05
3.05,6.18515562e-09,3.19507556e-08,6.8654775e-08,2.48816913e-07,5.64441378e-06,1.55777574e-05
3.1,6.18306329e-09,3.1839775e-08,6.74747615e-08,2.24581425e-07,5.01606319e-06,1.50062506e-05
3.15,6.18105054e-09,3.17349317e-08,6.64022047e-08,2.04917448e-07,4.40091596e-06,1.44358455e-05
3.2,6.17911293e-09,3.16357379e-08,6.5423722e-08,1.88764234e-07,3.8064115e-06,1.38664953e-05
3.25,6.17724634e-09,3.15417557e-08,6.45279927e-08,1.75342533e-07,3.24260946e-06,1.32981465e-05
3.3,6.17544695e-09,3.14525907e-08,6.37053855e-08,1.64072629e-07,2.72141784e-06,1.27307375e-05
3.35,6.17371121e-09,3.13678867e-08,6.29476626e-08,1.54517817e-07,2.25451949e-06,1.2164198e-05
3.4,6.17203581e-09,3.12873215e-08,6.22477417e-08,1.46345103e-07,1.85047194e-06,1.15984479e-05
3.45,6.17041767e-09,3.12106029e-08,6.15995057e-08,1.39297602e-07,1.51238232e-06,1.10333976e-05
3.5,6.16885391e-09,3.11374651e-08,6.09976468e-08,1.33174945e-07,1.23747153e-06,1.04689484e-05
3.55,6.16734187e-09,3.10676661e-08,6.04375399e-08,1.27819201e-07,1.01857202e-06,9.90499585e-06
3.6,6.16587902e-09,3.10009851e-08,5.9915139e-08,1.23104668e-07,8.46447177e-07,9.34143615e-06
3.65,6.16446302e-09,3.09372199e-08,5.94268908e-08,1.18930365e-07,7.11773542e-07,8.77817982e-06
3.7,6.16309166e-09,3.08761856e-08,5.89696635e-08,1.15214466e-07,6.06297683e-07,8.21517617e-06
3.75,6.16176289e-09,3.08177121e-08,5.85406875e-08,1.1189013e-07,5.23258298e-07,7.65245665e-06
3.8,6.16047476e-09,3.07616433e-08,5.81375053e-08,1.08902337e-07,4.57364565e-07,7.09020849e-06
3.85,6.15922546e-09,3.07078353e-08,5.77579298e-08,1.06205474e-07,4.04581395e-07,6.52889482e-06
3.9,6.15801325e-09,3.06561553e-08,5.74000087e-08,1.03761473e-07,3.61870031e-07,5.96944211e-06
3.95,6.15683654e-09,3.06064808e-08,5.70619942e-08,1.01538359e-07,3.26951512e-07,5.41351409e-06
4.0,6.1556938e-09,3.05586984e-08,5.67423179e-08,9.95091221e-08,2.98114452e-07,4.86387421e-06
4.05,6.15458359e-09,3.05127029e-08,5.6439568e-08,9.76508107e-08,2.74067567e-07,4.32478946e-06
4.1,6.15350456e-09,3.04683967e-08,5.61524712e-08,9.59438246e-08,2.53829854e-07,3.80233555e-06
4.15,6.15245542e-09,3.04256894e-08,5.58798762e-08,9.43713399e-08,2.36650005e-07,3.30435203e-06
4.2,6.15143496e-09,3.03844966e-08,5.56207396e-08,9.29188486e-08,2.21947612e-07,2.83976556e-06
4.25,6.15044203e-09,3.03447399e-08,5.53741137e-08,9.15737838e-08,2.09270279e-07,2.41719609e-06
4.3,6.14947555e-09,3.03063459e-08,5.51391362e-08,9.03252146e-08,1.98262242e-07,2.04319848e-06
4.35,6.14853448e-09,3.02692465e-08,5.49150207e-08,8.91635946e-08,1.88641277e-07,1.7208689e-06
4.4,6.14761786e-09,3.02333777e-08,5.47010488e-08,8.80805555e-08,1.80181603e-07,1.44944944e-06
4.45,6.14672474e-09,3.01986798e-08,5.44965628e-08,8.70687353e-08,1.7270112e-07,1.22499758e-06
4.5,6.14585426e-09,3.01650967e-08,5.43009598e-08,8.61216347e-08,1.66051821e-07,1.04164661e-06
4.55,6.14500556e-09,3.01325761e-08,5.41136861e-08,8.52334977e-08,1.60112511e-07,8.92867361e-07
4.6,6.14417786e-09,3.01010686e-08,5.39342321e-08,8.43992108e-08,1.54783259e-07,7.72378027e-07
4.65,6.1433704e-09,3.0070528e-08,5.37621284e-08,8.36142176e-08,1.49981113e-07,6.74636124e-07
4.7,6.14258244e-09,3.00409107e-08,5.35969418e-08,8.28744469e-08,1.45636784e-07,5.9500836e-07
4.75,6.14181332e-09,3.00121758e-08,5.34382719e-08,8.21762511e-08,1.41692046e-07,5.2974897e-07
4.8,6.14106236e-09,2.99842848e-08,5.32857483e-08,8.15163537e-08,1.38097694e-07,4.75889373e-07
4.85,6.14032894e-09,2.99572012e-08,5.31390276e-08,8.08918042e-08,1.34811926e-07,4.31102055e-07
4.9,6.13961246e-09,2.99308907e-08,5.2997791e-08,8.02999396e-08,1.31799045e-07,3.9357038e-07
4.95,6.13891236e-09,2.9905321e-08,5.28617426e-08,7.97383509e-08,1.29028422e-07,3.61876929e-07
5.0,6.13822809e-09,2.98804613e-08,5.27306068e-08,7.92048537e-08,1.26473658e-07,3.34913047e-07
5.05,6.13755913e-09,2.98562827e-08,5.2604127e-08,7.86974639e-08,1.24111898e-07,3.11807842e-07
5.1,6.13690497e-09,2.98327578e-08,5.24820642e-08,7.82143751e-08,1.21923278e-07,2.91873451e-07
5.15,6.13626514e-09,2.98098606e-08,5.23641947e-08,7.77539397e-08,1.19890462e-07,2.74563207e-07
5.2,6.13563918e-09,2.97875664e-08,5.225031e-08,7.73146521e-08,1.17998268e-07,2.59439808e-07
5.25,6.13502666e-09,2.9765852e-08,5.21402147e-08,7.68951344e-08,1.16233349e-07,2.46151081e-07
5.3,6.13442716e-09,2.97446951e-08,5.20337259e-08,7.64941227e-08,1.14583935e-07,2.344115e-07
5.35,6.13384026e-09,2.97240746e-08,5.19306721e-08,7.61104564e-08,1.13039612e-07,2.23988035e-07
5.4,6.13326559e-09,2.97039706e-08,5.18308924e-08,7.57430676e-08,1.11591136e-07,2.14689269e-07
5.45,6.13270278e-09,2.9684364e-08,5.17342356e-08,7.53909726e-08,1.10230281e-07,2.06356977e-07
5.5,6.13215147e-09,2.96652368e-08,5.16405598e-08,7.50532633e-08,1.08949703e-07,1.9885958e-07
5.55,6.13161132e-09,2.96465715e-08,5.15497311e-08,7.4729101e-08,1.0774283e-07,1.92087023e-07
5.6,6.131082e-09,2.96283519e-08,5.14616237e-08,7.44177092e-08,1.06603764e-07,1.8594674e-07
5.65,6.1305632e-09,2.96105622e-08,5.13761189e-08,7.41183687e-08,1.05527201e-07,1.80360463e-07
5.7,6.1300546e-09,2.95931875e-08,5.12931048e-08,7.38304121e-08,1.04508358e-07,1.75261673e-07
5.75,6.12955593e-09,2.95762136e-08,5.12124755e-08,7.35532192e-08,1.03542912e-07,1.70593571e-07
5.8,6.12906689e-09,2.95596267e-08,5.11341314e-08,7.32862136e-08,1.0262695e-07,1.66307423e-07
5.85,6.12858723e-09,2.9543414e-08,5.10579778e-08,7.30288581e-08,1.01756919e-07,1.6236124e-07
5.9,6.12811667e-09,2.95275629e-08,5.09839256e-08,7.27806521e-08,1.0092959e-07,1.58718687e-07
5.95,6.12765497e-09,2.95120616e-08,5.091189e-08,7.25411284e-08,1.00142018e-07,1.55348198e-07
6.0,6.12720189e-09,2.94968987e-08,5.0841791e-08,7.23098504e-08,9.93915186e-08,1.52222246e-07
6.05,6.12675719e-09,2.94820633e-08,5.07735524e-08,7.20864098e-08,9.86756342e-08,1.49316736e-07
6.1,6.12632064e-09,2.9467545e-08,5.07071022e-08,7.18704243e-08,9.79921149e-08,1.46610507e-07
6.15,6.12589204e-09,2.94533338e-08,5.06423719e-08,7.16615358e-08,9.73388963e-08,1.44084911e-07
6.2,6.12547117e-09,2.943942e-08,5.05792963e-08,7.1459408e-08,9.67140811e-08,1.41723462e-07
6.25,6.12505783e-09,2.94257946e-08,5.05178138e-08,7.12637256e-08,9.61159228e-08,1.39511544e-07
6.3,6.12465183e-09,2.94124487e-08,5.04578653e-08,7.10741918e-08,9.55428118e-08,1.37436156e-07
6.35,6.12425297e-09,2.93993739e-08,5.03993949e-08,7.08905279e-08,9.4993262e-08,1.35485707e-07
6.4,6.12386108e-09,2.93865619e-08,5.03423493e-08,7.07124712e-08,9.44658997e-08,1.33649832e-07
6.45,6.12347598e-09,2.93740051e-08,5.02866776e-08,7.05397743e-08,9.39594533e-08,1.31919241e-07
6.5,6.12309749e-09,2.93616959e-08,5.02323314e-08,7.0372204e-08,9.3472744e-08,1.30285584e-07
6.55,6.12272546e-09,2.93496272e-08,5.01792644e-08,7.02095399e-08,9.30046781e-08,1.2874134e-07
6.6,6.12235973e-09,2.93377919e-08,5.01274326e-08,7.00515743e-08,9.2554239e-08,1.27279721e-07
