vds,vb1,vb2,vb3,vb4,vb5,vb6
0.0,3.14766819e-06,9.43761883e-06,1.47040711e-05,1.89169141e-05,2.21327675e-05,2.44733309e-05
0.05,2.73902674e-06,9.01826654e-06,1.43113031e-05,1.85584992e-05,2.18109733e-05,2.41876742e-05
0.1,2.33216698e-06,8.60014121e-06,1.3919642e-05,1.82010331e-05,2.14899657e-05,2.39026557e-05
0.15,1.92774651e-06,8.18324146e-06,1.35290839e-05,1.78445124e-05,2.1169742e-05,2.36182733e-05
0.2,1.52734867e-06,7.76756698e-06,1.31396246e-05,1.74889338e-05,2.08502997e-05,2.33345253e-05
0.25,1.13514149e-06,7.35311895e-06,1.27512604e-05,1.7134294e-05,2.05316363e-05,2.30514097e-05
0.3,7.62714627e-07,6.93990068e-06,1.23639872e-05,1.67805895e-05,2.02137491e-05,2.27689246e-05
0.35,4.39557843e-07,6.52791849e-06,1.19778013e-05,1.64278171e-05,1.98966357e-05,2.24870681e-05
0.4,2.12651145e-07,6.11718315e-06,1.15926989e-05,1.60759734e-05,1.95802934e-05,2.22058384e-05
0.45,9.54173691e-08,5.70771211e-06,1.12086764e-05,1.57250552e-05,1.92647197e-05,2.19252335e-05
0.5,4.64392547e-08,5.29953299e-06,1.08257301e-05,1.53750591e-05,1.89499121e-05,2.16452516e-05
0.55,2.63928238e-08,4.89268946e-06,1.04438566e-05,1.50259818e-05,1.8635868e-05,2.13658909e-05
0.6,1.74493486e-08,4.48725102e-06,1.00630526e-05,1.467782e-05,1.8322585e-05,2.10871493e-05
0.65,1.30052642e-08,4.08333001e-06,9.68331499e-06,1.43305705e-05,1.80100605e-05,2.08090252e-05
0.7,1.05704009e-08,3.6811121e-06,9.30464097e-06,1.39842299e-05,1.76982921e-05,2.05315167e-05
0.75,9.12312548e-09,3.2809123e-06,8.92702804e-06,1.3638795e-05,1.73872771e-05,2.02546218e-05
0.8,8.20358337e-09,2.88328145e-06,8.55047413e-06,1.32942625e-05,1.70770131e-05,1.99783388e-05
0.85,7.586579e-09,2.48921273e-06,8.1749778e-06,1.29506292e-05,1.67674976e-05,1.97026659e-05
0.9,7.15351272e-09,2.10054657e-06,7.80053846e-06,1.26078916e-05,1.64587281e-05,1.94276011e-05
0.95,6.8379366e-09,1.72074691e-06,7.42715664e-06,1.22660466e-05,1.61507021e-05,1.91531426e-05
1.0,6.60060872e-09,1.35625692e-06,7.0548345e-06,1.19250909e-05,1.5843417e-05,1.88792887e-05
1.05,6.41728613e-09,1.01828267e-06,6.68357652e-06,1.15850211e-05,1.55368704e-05,1.86060375e-05
1.1,6.27239903e-09,7.2328114e-07,6.31339055e-06,1.12458339e-05,1.52310598e-05,1.83333871e-05
1.15,6.15560508e-09,4.88208635e-07,5.94428934e-06,1.09075261e-05,1.49259827e-05,1.80613358e-05
1.2,6.05982878e-09,3.20144449e-07,5.57629309e-06,1.05700943e-05,1.46216364e-05,1.77898817e-05
1.25,5.98010225e-09,2.10853884e-07,5.20943322e-06,1.0233535e-05,1.43180185e-05,1.7519023e-05
1.3,5.91285626e-09,1.43592172e-07,4.84375862e-06,9.89784512e-06,1.40151265e-05,1.72487578e-05
1.35,5.85547331e-09,1.02704634e-07,4.47934577e-06,9.56302111e-06,1.37129577e-05,1.69790845e-05
1.4,5.80599828e-09,7.74163044e-08,4.11631555e-06,9.22905966e-06,1.34115096e-05,1.6710001e-05
1.45,5.76294643e-09,6.12647872e-08,3.75486168e-06,8.89595744e-06,1.31107797e-05,1.64415057e-05
1.5,5.72517326e-09,5.05594796e-08,3.3952996e-06,8.56371115e-06,1.28107651e-05,1.61735967e-05
1.55,5.69178444e-09,4.31987722e-08,3.0381512e-06,8.23231757e-06,1.25114634e-05,1.59062721e-05
1.6,5.66207246e-09,3.79626332e-08,2.68429191e-06,7.90177363e-06,1.22128718e-05,1.56395302e-05
1.65,5.63547121e-09,3.41222408e-08,2.33520215e-06,7.5720765e-06,1.19149875e-05,1.5373369e-05
1.7,5.61152298e-09,3.12282723e-08,1.99337664e-06,7.24322373e-06,1.16178078e-05,1.51077867e-05
1.75,5.5898542e-09,2.89949154e-08,1.66291938e-06,6.91521348e-06,1.13213298e-05,1.48427816e-05
1.8,5.5701572e-09,2.72348994e-08,1.35019828e-06,6.5880449e-06,1.10255506e-05,1.45783516e-05
1.85,5.55217658e-09,2.58221087e-08,1.06403675e-06,6.26171862e-06,1.07304672e-05,1.4314495e-05
1.9,5.53569869e-09,2.46694539e-08,8.1445345e-07,5.93623766e-06,1.04360764e-05,1.40512097e-05
1.95,5.52054353e-09,2.37154072e-08,6.09403177e-07,5.61160876e-06,1.01423751e-05,1.3788494e-05
2.0,5.5065585e-09,2.2915589e-08,4.51125574e-07,5.28784444e-06,9.84936001e-06,1.35263459e-05
2.05,5.49361339e-09,2.22373804e-08,3.35219677e-07,4.96496648e-06,9.55702755e-06,1.32647634e-05
2.1,5.48159649e-09,2.16563936e-08,2.53197458e-07,4.64301124e-06,9.26537412e-06,1.30037445e-05
2.15,5.47041145e-09,2.1154108e-08,1.95970894e-07,4.32203861e-06,8.97439588e-06,1.27432872e-05
2.2,5.45997472e-09,2.07162579e-08,1.55964673e-07,4.00214641e-06,8.68408876e-06,1.24833895e-05
2.25,5.45021354e-09,2.03317111e-08,1.27643237e-07,3.6834943e-06,8.39444847e-06,1.22240493e-05
2.3,5.44106427e-09,1.99916766e-08,1.07223769e-07,3.36634335e-06,8.10547042e-06,1.19652644e-05
2.35,5.43247098e-09,1.96891356e-08,9.21946418e-08,3.05112122e-06,7.81714969e-06,1.17070327e-05
2.4,5.42438435e-09,1.94184277e-08,8.08988976e-08,2.73852847e-06,7.52948106e-06,1.14493518e-05
2.45,5.41676071e-09,1.91749452e-08,7.2236536e-08,2.42970621e-06,7.24245891e-06,1.11922195e-05
2.5,5.40956127e-09,1.89549048e-08,6.54676803e-08,2.1264846e-06,6.95607724e-06,1.09356333e-05
2.55,5.40275146e-09,1.87551754e-08,6.00864404e-08,1.83170767e-06,6.67032973e-06,1.06795907e-05
2.6,5.39630037e-09,1.8573146e-08,5.57407306e-08,1.54955373e-06,6.38520974e-06,1.04240891e-05
2.65,5.39018026e-09,1.84066245e-08,5.21810915e-08,1.28562153e-06,6.10071052e-06,1.01691258e-05
2.7,5.3843662e-09,1.82537583e-08,4.92276785e-08,1.04640767e-06,5.81682547e-06,9.91469789e-06
2.75,5.37883571e-09,1.81129726e-08,4.67486706e-08,8.37927503e-07,5.53354869e-06,9.6608023e-06
2.8,5.37356843e-09,1.79829208e-08,4.4645929e-08,6.63864772e-07,5.2508759e-06,9.40743578e-06
2.85,5.36854596e-09,1.78624456e-08,4.28453192e-08,5.24328585e-07,4.96880596e-06,9.15459488e-06
2.9,5.36375153e-09,1.77505471e-08,4.12900753e-08,4.16065828e-07,4.68734352e-06,8.90227586e-06
2.95,5.3591699e-09,1.76463576e-08,3.99361804e-08,3.33848304e-07,4.40650323e-06,8.6504747e-06
3.0,5.35478715e-09,1.75491209e-08,3.87491019e-08,2.72032837e-07,4.12631689e-06,8.39918703e-06
3.05,5.35059057e-09,1.74581747e-08,3.77014532e-08,2.25583012e-07,3.84684507e-06,8.1484081e-06
3.1,5.34656849e-09,1.73729372e-08,3.67712953e-08,1.90462834e-07,3.56819608e-06,7.89813268e-06
3.15,5.34271021e-09,1.72928952e-08,3.59408877e-08,1.63630828e-07,3.29055684e-06,7.64835501e-06
3.2,5.3390059e-09,1.72175942e-08,3.51957604e-08,1.42868941e-07,3.0142422e-06,7.39906873e-06
3.25,5.33544649e-09,1.71466307e-08,3.45240144e-08,1.26583174e-07,2.73977201e-06,7.15026676e-06
3.3,5.33202361e-09,1.70796451e-08,3.3915791e-08,1.13631769e-07,2.46798662e-06,6.90194122e-06
3.35,5.32872954e-09,1.7016316e-08,3.33628641e-08,1.03193886e-07,2.20020839e-06,6.65408331e-06
3.4,5.32555712e-09,1.69563555e-08,3.28583245e-08,9.46747504e-08,1.93844032e-06,6.40668319e-06
3.45,5.32249971e-09,1.68995045e-08,3.23963327e-08,8.76389946e-08,1.68555339e-06,6.15972987e-06
3.5,5.31955116e-09,1.68455298e-08,3.19719251e-08,8.17642942e-08,1.44534751e-06,5.91321109e-06
3.55,5.31670575e-09,1.67942206e-08,3.15808593e-08,7.68091863e-08,1.22231284e-06,5.66711332e-06
3.6,5.31395815e-09,1.67453861e-08,3.12194905e-08,7.25906372e-08,1.020962e-06,5.42142172e-06
3.65,5.31130339e-09,1.66988531e-08,3.08846725e-08,6.89682961e-08,8.44834377e-07,5.17612036e-06
3.7,5.30873684e-09,1.66544641e-08,3.05736769e-08,6.58333406e-08,6.95585641e-07,4.93119268e-06
3.75,5.30625418e-09,1.66120753e-08,3.02841274e-08,6.31004973e-08,5.7264447e-07,4.68662238e-06
3.8,5.30385134e-09,1.65715558e-08,3.00139461e-08,6.07022721e-08,4.735836e-07,4.44239515e-06
3.85,5.30152454e-09,1.65327853e-08,2.97613088e-08,5.85847352e-08,3.94917223e-07,4.19850164e-06
3.9,5.29927022e-09,1.64956539e-08,2.9524608e-08,5.67044093e-08,3.3289871e-07,3.95494257e-06
3.95,5.29708506e-09,1.64600606e-08,2.93024228e-08,5.50259481e-08,2.84062011e-07,3.7117372e-06
4.0,5.29496591e-09,1.64259124e-08,2.90934926e-08,5.35203887e-08,2.45474582e-07,3.46893727e-06
4.05,5.29290983e-09,1.63931235e-08,2.88966956e-08,5.21638223e-08,2.14786674e-07,3.22664925e-06
4.1,5.29091405e-09,1.63616149e-08,2.87110306e-08,5.09363739e-08,1.9017513e-07,2.98506944e-06
4.15,5.28897595e-09,1.63313136e-08,2.85356014e-08,4.98214135e-08,1.70249936e-07,2.74453733e-06
4.2,5.28709308e-09,1.63021518e-08,2.83696039e-08,4.88049404e-08,1.53959544e-07,2.50561347e-06
4.25,5.28526311e-09,1.62740668e-08,2.82123143e-08,4.78750985e-08,1.40509564e-07,2.26918548e-06
4.3,5.28348384e-09,1.62470004e-08,2.80630798e-08,4.70217929e-08,1.29298214e-07,2.03659702e-06
4.35,5.2817532e-09,1.62208986e-08,2.792131e-08,4.62363839e-08,1.1986715e-07,1.80977449e-06
4.4,5.28006923e-09,1.61957108e-08,2.77864701e-08,4.55114406e-08,1.11864827e-07,1.59129452e-06
4.45,5.27843006e-09,1.61713901e-08,2.7658074e-08,4.48405429e-08,1.05019466e-07,1.38430481e-06
4.5,5.27683395e-09,1.61478929e-08,2.75356796e-08,4.42181192e-08,9.91191939e-08,1.19221683e-06
4.55,5.27527921e-09,1.61251781e-08,2.74188836e-08,4.36393146e-08,9.39974207e-08,1.018171e-06
4.6,5.27376428e-09,1.61032074e-08,2.73073176e-08,4.30998816e-08,8.95220538e-08,8.6441989e-07
4.65,5.27228763e-09,1.60819452e-08,2.7200644e-08,4.25960907e-08,8.55874826e-08,7.31877988e-07
4.7,5.27084785e-09,1.60613578e-08,2.70985537e-08,4.21246556e-08,8.21085915e-08,6.20031108e-07
4.75,5.26944357e-09,1.60414137e-08,2.70007624e-08,4.16826704e-08,7.90162529e-08,5.27207312e-07
4.8,5.26807351e-09,1.60220835e-08,2.69070087e-08,4.12675575e-08,7.62539099e-08,4.5104164e-07
4.85,5.26673643e-09,1.60033392e-08,2.68170515e-08,4.08770238e-08,7.3774965e-08,3.88935435e-07
4.9,5.26543116e-09,1.59851549e-08,2.67306685e-08,4.05090227e-08,7.15407695e-08,3.38390261e-07
4.95,5.26415659e-09,1.59675058e-08,2.66476541e-08,4.01617233e-08,6.95190646e-08,2.97192342e-07
5.0,5.26291165e-09,1.59503688e-08,2.65678179e-08,3.98334827e-08,6.76827623e-08,2.634794e-07
5.05,5.26169532e-09,1.5933722e-08,2.64909835e-08,3.95228231e-08,6.60089874e-08,2.35735462e-07
5.1,5.26050664e-09,1.59175448e-08,2.64169872e-08,3.92284121e-08,6.44783172e-08,2.12750884e-07
5.15,5.25934468e-09,1.59018176e-08,2.63456767e-08,3.89490454e-08,6.30741766e-08,1.9357116e-07
5.2,5.25820855e-09,1.5886522e-08,2.62769104e-08,3.86836323e-08,6.17823509e-08,1.77446927e-07
5.25,5.2570974e-09,1.58716406e-08,2.62105564e-08,3.84311825e-08,6.05905943e-08,1.63790417e-07
5.3,5.25601043e-09,1.58571568e-08,2.61464916e-08,3.81907955e-08,5.94883102e-08,1.5213973e-07
5.35,5.25494686e-09,1.58430549e-08,2.6084601e-08,3.79616502e-08,5.84662915e-08,1.42130498e-07
5.4,5.25390595e-09,1.58293202e-08,2.60247772e-08,3.7742997e-08,5.75165064e-08,1.3347385e-07
5.45,5.25288699e-09,1.58159385e-08,2.59669197e-08,3.75341503e-08,5.66319221e-08,1.25939439e-07
5.5,5.25188929e-09,1.58028964e-08,2.59109342e-08,3.73344814e-08,5.58063584e-08,1.19342442e-07
5.55,5.2509122e-09,1.57901812e-08,2.58567324e-08,3.71434135e-08,5.50343659e-08,1.1353361e-07
5.6,5.24995509e-09,1.57777808e-08,2.58042315e-08,3.6960416e-08,5.4311124e-08,1.08391637e-07
5.65,5.24901737e-09,1.57656838e-08,2.57533534e-08,3.67850005e-08,5.36323548e-08,1.03817295e-07
5.7,5.24809845e-09,1.57538792e-08,2.57040249e-08,3.66167161e-08,5.2994251e-08,9.97289038e-08
5.75,5.24719778e-09,1.57423564e-08,2.56561771e-08,3.64551467e-08,5.23934144e-08,9.60588179e-08
5.8,5.24631482e-09,1.57311057e-08,2.5609745e-08,3.62999072e-08,5.18268038e-08,9.2750681e-08
5.85,5.24544906e-09,1.57201175e-08,2.55646674e-08,3.6150641e-08,5.12916904e-08,8.97572757e-08
5.9,5.24460002e-09,1.57093828e-08,2.55208864e-08,3.60070171e-08,5.07856194e-08,8.70388252e-08
5.95,5.2437672e-09,1.56988929e-08,2.54783476e-08,3.58687284e-08,5.03063776e-08,8.45616455e-08
6.0,5.24295017e-09,1.56886396e-08,2.54369992e-08,3.57354892e-08,4.98519648e-08,8.22970694e-08
6.05,5.24214847e-09,1.5678615e-08,2.53967926e-08,3.56070334e-08,4.94205695e-08,8.02205825e-08
6.1,5.24136168e-09,1.56688116e-08,2.53576814e-08,3.54831131e-08,4.90105474e-08,7.83111265e-08
6.15,5.2405894e-09,1.56592221e-08,2.53196221e-08,3.5363497e-08,4.86204032e-08,7.65505328e-08
6.2,5.23983123e-09,1.56498397e-08,2.52825731e-08,3.52479689e-08,4.82487742e-08,7.49230608e-08
6.25,5.2390868e-09,1.56406578e-08,2.52464952e-08,3.51363268e-08,4.78944166e-08,7.34150198e-08
6.3,5.23835573e-09,1.56316699e-08,2.52113509e-08,3.50283815e-08,4.75561925e-08,7.20144567e-08
6.35,5.23763768e-09,1.56228702e-08,2.51771048e-08,3.49239557e-08,4.72330596e-08,7.07108977e-08
6.4,5.23693229e-09,1.56142526e-08,2.51437233e-08,3.4822883e-08,4.69240614e-08,6.94951338e-08
6.45,5.23623926e-09,1.56058117e-08,2.51111742e-08,3.47250074e-08,4.66283185e-08,6.83590411e-08
6.5,5.23555825e-09,1.55975422e-08,2.50794272e-08,3.46301822e-08,4.63450214e-08,6.72954307e-08
6.55,5.23488896e-09,1.55894387e-08,2.50484532e-08,3.45382694e-08,4.60734237e-08,6.62979214e-08
6.6,5.23423109e-09,1.55814966e-08,2.50182245e-08,3.4449139e-08,4.58128362e-08,6.53608332e-08
