vds,vb1,vb2,vb3,vb4,vb5,vb6
0.0,0.000249465015,0.000774810417,0.00116879733,0.00145598699,0.00165305334,0.00177828924
0.05,0.000204068442,0.000721464536,0.00111312763,0.00140122283,0.00160137738,0.0017308819
0.1,0.000160133761,0.000669611239,0.0010589593,0.00134782501,0.00155086954,0.00168443515
0.15,0.00011805362,0.000619198096,0.00100623909,0.0012957485,0.00150149489,0.00163892322
0.2,7.91736067e-05,0.000570176139,0.000954916021,0.00124494999,0.00145321973,0.00159432116
0.25,4.73883668e-05,0.000522500366,0.000904941305,0.00119538784,0.00140601151,0.00155060479
0.3,2.80065688e-05,0.000476130761,0.000856268226,0.00114702195,0.00135983879,0.00150775068
0.35,1.93414416e-05,0.000431034173,0.000808852127,0.00109981368,0.00131467116,0.00146573609
0.4,1.54663291e-05,0.000387187882,0.000762650411,0.00105372586,0.0012704792,0.00142453894
0.45,1.33312239e-05,0.000344586632,0.000717622559,0.00100872272,0.00122723446,0.0013841378
0.5,1.19258638e-05,0.000303257177,0.000673730161,0.000964769891,0.00118490944,0.00134451185
0.55,1.08982436e-05,0.000263289389,0.000630936943,0.000921834404,0.0011434776,0.00130564091
0.6,1.00999612e-05,0.000224903119,0.000589208819,0.000879884643,0.00110291331,0.00126750539
0.65,9.45606577e-06,0.000188581737,0.000548513963,0.000838890317,0.00106319187,0.00123008629
0.7,8.92321711e-06,0.000155269272,0.000508822966,0.000798822407,0.00102428951,0.00119336524
0.75,8.47387381e-06,0.000126397024,0.000470109138,0.00075965308,0.000986183331,0.00115732444
0.8,8.08934795e-06,0.000103214667,0.000432349106,0.000721355576,0.000948851302,0.00112194667
0.85,7.75635061e-06,8.57600776e-05,0.000395524081,0.000683904052,0.000912272234,0.00108721532
0.9,7.46509684e-06,7.29268623e-05,0.0003596227,0.000647273359,0.000876425717,0.00105311432
0.95,7.20818468e-06,6.33866536e-05,0.000324647933,0.000611438716,0.000841292068,0.00101962816
1.0,6.97989239e-06,5.61114546e-05,0.000290634754,0.00057637523,0.000806852254,0.000986741853
1.05,6.77571728e-06,5.04112457e-05,0.000257694352,0.000542057141,0.00077308779,0.000954440948
1.1,6.59206211e-06,4.58355289e-05,0.000226108668,0.000508456636,0.000739980613,0.000922711461
1.15,6.42601538e-06,4.20858781e-05,0.000196459356,0.000475541949,0.000707512902,0.000891539862
1.2,6.27519365e-06,3.89591902e-05,0.000169622765,0.000443274391,0.000675666837,0.000860913029
1.25,6.13762603e-06,3.63132297e-05,0.000146416618,0.000411603982,0.000644424252,0.000830818202
1.3,6.01166803e-06,3.40457012e-05,0.000127137018,0.000380464211,0.000613766127,0.000801242919
1.35,5.89593636e-06,3.20812632e-05,0.000111489579,0.000349769678,0.000583671817,0.00077217494
1.4,5.78925882e-06,3.03632496e-05,9.88731379e-05,0.00031942962,0.000554117882,0.000743602144
1.45,5.69063542e-06,2.8848245e-05,8.86539201e-05,0.000289407042,0.000525076267,0.000715512399
1.5,5.59920778e-06,2.75024375e-05,8.02918204e-05,0.000259856258,0.000496511491,0.000687893381
1.55,5.51423492e-06,2.62991102e-05,7.33651968e-05,0.000231292096,0.000468376374,0.000660732318
1.6,5.43507381e-06,2.52168763e-05,6.75558883e-05,0.000204581676,0.000440605895,0.000634015628
1.65,5.36116368e-06,2.42384164e-05,6.26258913e-05,0.000180607635,0.000413109432,0.000607728397
1.7,5.29201333e-06,2.33495565e-05,5.8396549e-05,0.000159862159,0.000385764268,0.000581853592
1.75,5.22719061e-06,2.25385866e-05,5.47325266e-05,0.000142339019,0.000358420087,0.000556370898
1.8,5.16631386e-06,2.17957477e-05,5.15301216e-05,0.000127701246,0.000330936634,0.000531254959
1.85,5.10904472e-06,2.11128431e-05,4.87088922e-05,0.000115491197,0.000303284304,0.000506472751
1.9,5.0550822e-06,2.04829374e-05,4.62056774e-05,0.000105261179,0.00027570174,0.00048197971
1.95,5.00415763e-06,1.99001237e-05,4.39703038e-05,9.6626424e-05,0.000248797656,0.000457714286
2.0,4.95603047e-06,1.93593399e-05,4.1962475e-05,8.92750368e-05,0.000223427615,0.000433591014
2.05,4.91048473e-06,1.88562227e-05,4.0149494e-05,8.29605646e-05,0.000200365864,0.000409493732
2.1,4.8673259e-06,1.83869918e-05,3.85045767e-05,7.74899542e-05,0.000180035167,0.00038527445
2.15,4.8263784e-06,1.79483552e-05,3.70055882e-05,7.27119602e-05,0.000162471959,0.000360770776
2.2,4.78748327e-06,1.75374333e-05,3.5634086e-05,6.85075206e-05,0.00014745404,0.000335862273
2.25,4.75049631e-06,1.71516959e-05,3.43745877e-05,6.47822343e-05,0.000134647185,0.000310577518
2.3,4.71528639e-06,1.67889115e-05,3.32140042e-05,6.14606313e-05,0.000123702547,0.000285214276
2.35,4.68173401e-06,1.64471039e-05,3.21411976e-05,5.84818533e-05,0.000114303565,0.000260366352
2.4,4.64973004e-06,1.61245171e-05,3.11466332e-05,5.57963999e-05,0.000106181343,0.000236774251
2.45,4.61917462e-06,1.58195853e-05,3.0222102e-05,5.33636707e-05,9.91147192e-05,0.000215075636
2.5,4.58997622e-06,1.5530908e-05,2.93604998e-05,5.11500978e-05,9.29244325e-05,0.000195632767
2.55,4.56205075e-06,1.52572287e-05,2.85556476e-05,4.91277166e-05,8.74658898e-05,0.000178517898
2.6,4.53532088e-06,1.49974168e-05,2.78021469e-05,4.7273063e-05,8.26223954e-05,0.000163599549
2.65,4.50971532e-06,1.47504525e-05,2.70952603e-05,4.55663168e-05,7.82994217e-05,0.00015064372
2.7,4.48516828e-06,1.45154131e-05,2.64308138e-05,4.39906295e-05,7.44199856e-05,0.00013938698
2.75,4.46161896e-06,1.42914622e-05,2.58051156e-05,4.25315943e-05,7.09210004e-05,0.000129576845
2.8,4.43901104e-06,1.40778396e-05,2.52148889e-05,4.11768234e-05,6.77504235e-05,0.000120989164
2.85,4.41729232e-06,1.3873853e-05,2.46572151e-05,3.99156095e-05,6.48650354e-05,0.000113432663
2.9,4.39641435e-06,1.36788703e-05,2.41294864e-05,3.87386528e-05,6.22287059e-05,0.000106747397
2.95,4.37633207e-06,1.34923134e-05,2.36293654e-05,3.76378386e-05,5.98110379e-05,0.000100800888
3.0,4.35700355e-06,1.33136526e-05,2.31547514e-05,3.66060556e-05,5.75863e-05,9.54837531e-05
3.05,4.33838972e-06,1.31424016e-05,2.27037509e-05,3.56370465e-05,5.55325832e-05,9.07056245e-05
3.1,4.3204541e-06,1.2978113e-05,2.22746529e-05,3.47252842e-05,5.36311284e-05,8.63916358e-05
3.15,4.30316265e-06,1.28203748e-05,2.18659073e-05,3.38658689e-05,5.18657894e-05,8.24795051e-05
3.2,4.28648351e-06,1.26688066e-05,2.14761067e-05,3.30544421e-05,5.02225995e-05,7.89171684e-05
3.25,4.27038687e-06,1.2523057e-05,2.11039702e-05,3.22871138e-05,4.868942e-05,7.56608766e-05
3.3,4.25484479e-06,1.23828006e-05,2.07483296e-05,3.15604019e-05,4.72556545e-05,7.26736704e-05
3.35,4.23983105e-06,1.22477357e-05,2.04081171e-05,3.08711803e-05,4.59120134e-05,6.99241605e-05
3.4,4.22532104e-06,1.21175825e-05,2.00823553e-05,3.02166343e-05,4.46503208e-05,6.73855487e-05
3.45,4.21129164e-06,1.19920806e-05,1.97701471e-05,2.95942231e-05,4.34633536e-05,6.50348403e-05
3.5,4.19772108e-06,1.18709877e-05,1.94706682e-05,2.90016478e-05,4.23447077e-05,6.28522086e-05
3.55,4.18458888e-06,1.17540781e-05,1.91831596e-05,2.84368226e-05,4.1288686e-05,6.08204779e-05
3.6,4.17187572e-06,1.16411412e-05,1.89069213e-05,2.78978513e-05,4.02902041e-05,5.89247034e-05
3.65,4.1595634e-06,1.15319802e-05,1.86413069e-05,2.73830061e-05,3.93447105e-05,5.71518256e-05
3.7,4.14763473e-06,1.1426411e-05,1.83857183e-05,2.68907095e-05,3.84481191e-05,5.54903868e-05
3.75,4.13607347e-06,1.13242613e-05,1.81396013e-05,2.6419518e-05,3.75967514e-05,5.39302958e-05
3.8,4.12486427e-06,1.12253696e-05,1.79024419e-05,2.59681086e-05,3.6787287e-05,5.24626326e-05
3.85,4.1139926e-06,1.11295845e-05,1.76737624e-05,2.55352663e-05,3.60167218e-05,5.10794847e-05
3.9,4.10344472e-06,1.10367635e-05,1.74531185e-05,2.51198734e-05,3.52823306e-05,4.97738108e-05
3.95,4.09320759e-06,1.09467731e-05,1.72400963e-05,2.47209e-05,3.45816362e-05,4.85393245e-05
4.0,4.08326886e-06,1.08594872e-05,1.70343098e-05,2.43373952e-05,3.39123819e-05,4.73703972e-05
4.05,4.07361682e-06,1.07747873e-05,1.68353987e-05,2.39684803e-05,3.3272507e-05,4.62619742e-05
4.1,4.06424033e-06,1.06925619e-05,1.6643026e-05,2.36133417e-05,3.26601268e-05,4.52095048e-05
4.15,4.05512883e-06,1.06127053e-05,1.64568764e-05,2.3271225e-05,3.20735138e-05,4.42088804e-05
4.2,4.04627226e-06,1.05351181e-05,1.62766545e-05,2.29414298e-05,3.15110819e-05,4.32563834e-05
4.25,4.03766107e-06,1.04597063e-05,1.61020833e-05,2.2623305e-05,3.0971372e-05,4.23486412e-05
4.3,4.02928617e-06,1.03863809e-05,1.59329028e-05,2.23162443e-05,3.04530398e-05,4.14825878e-05
4.35,4.02113889e-06,1.03150578e-05,1.57688685e-05,2.20196829e-05,2.9954845e-05,4.06554297e-05
4.4,4.01321097e-06,1.02456572e-05,1.56097507e-05,2.17330935e-05,2.94756407e-05,3.98646165e-05
4.45,4.00549456e-06,1.01781035e-05,1.5455333e-05,2.14559835e-05,2.90143657e-05,3.91078152e-05
4.5,3.99798215e-06,1.01123252e-05,1.53054114e-05,2.11878922e-05,2.85700359e-05,3.83828875e-05
4.55,3.99066658e-06,1.00482541e-05,1.51597936e-05,2.09283883e-05,2.81417379e-05,3.76878698e-05
4.6,3.983541e-06,9.98582562e-06,1.50182982e-05,2.06770673e-05,2.77286227e-05,3.70209563e-05
4.65,3.97659888e-06,9.92497846e-06,1.48807537e-05,2.04335499e-05,2.73298999e-05,3.6380483e-05
4.7,3.96983399e-06,9.86565417e-06,1.4746998e-05,2.01974797e-05,2.69448331e-05,3.57649145e-05
4.75,3.96324034e-06,9.8077972e-06,1.46168776e-05,1.99685216e-05,2.65727351e-05,3.51728314e-05
4.8,3.95681224e-06,9.75135465e-06,1.44902475e-05,1.97463605e-05,2.62129638e-05,3.46029199e-05
4.85,3.9505442e-06,9.69627612e-06,1.43669699e-05,1.95306994e-05,2.5864919e-05,3.40539624e-05
4.9,3.94443099e-06,9.64251356e-06,1.42469145e-05,1.93212583e-05,2.55280385e-05,3.35248284e-05
4.95,3.93846761e-06,9.59002116e-06,1.41299573e-05,1.91177732e-05,2.52017957e-05,3.30144669e-05
5.0,3.93264923e-06,9.53875518e-06,1.40159808e-05,1.89199948e-05,2.48856963e-05,3.25219e-05
5.05,3.92697126e-06,9.48867387e-06,1.39048734e-05,1.87276872e-05,2.45792761e-05,3.20462162e-05
5.1,3.92142927e-06,9.43973735e-06,1.37965289e-05,1.85406277e-05,2.42820989e-05,3.15865653e-05
5.15,3.91601901e-06,9.39190748e-06,1.36908461e-05,1.83586053e-05,2.39937542e-05,3.11421529e-05
5.2,3.91073643e-06,9.34514782e-06,1.35877289e-05,1.81814201e-05,2.37138554e-05,3.07122361e-05
5.25,3.9055776e-06,9.29942347e-06,1.34870857e-05,1.80088828e-05,2.3442038e-05,3.02961195e-05
5.3,3.90053876e-06,9.25470106e-06,1.33888293e-05,1.78408135e-05,2.31779584e-05,2.98931515e-05
5.35,3.89561631e-06,9.2109486e-06,1.32928763e-05,1.76770419e-05,2.29212919e-05,2.95027204e-05
5.4,3.89080678e-06,9.16813547e-06,1.31991473e-05,1.7517406e-05,2.26717319e-05,2.91242523e-05
5.45,3.88610682e-06,9.12623229e-06,1.31075664e-05,1.73617517e-05,2.24289882e-05,2.87572074e-05
5.5,3.88151322e-06,9.0852109e-06,1.30180613e-05,1.72099326e-05,2.21927865e-05,2.84010779e-05
5.55,3.87702289e-06,9.0450443e-06,1.29305628e-05,1.70618094e-05,2.19628667e-05,2.80553856e-05
5.6,3.87263286e-06,9.00570656e-06,1.28450045e-05,1.69172494e-05,2.17389824e-05,2.77196798e-05
5.65,3.86834025e-06,8.96717277e-06,1.27613233e-05,1.67761263e-05,2.15208999e-05,2.73935354e-05
5.7,3.8641423e-06,8.92941902e-06,1.26794585e-05,1.66383193e-05,2.13083974e-05,2.70765509e-05
5.75,3.86003635e-06,8.89242234e-06,1.25993521e-05,1.65037137e-05,2.11012643e-05,2.67683471e-05
5.8,3.85601983e-06,8.85616064e-06,1.25209485e-05,1.63721997e-05,2.08993002e-05,2.64685651e-05
5.85,3.85209028e-06,8.82061267e-06,1.24441945e-05,1.62436725e-05,2.07023149e-05,2.61768657e-05
5.9,3.84824529e-06,8.785758e-06,1.2369039e-05,1.6118032e-05,2.05101272e-05,2.58929274e-05
5.95,3.84448257e-06,8.75157695e-06,1.2295433e-05,1.59951826e-05,2.03225646e-05,2.56164454e-05
6.0,3.84079989e-06,8.7180506e-06,1.22233294e-05,1.58750327e-05,2.01394626e-05,2.53471308e-05
6.05,3.83719511e-06,8.6851607e-06,1.21526832e-05,1.57574948e-05,1.99606647e-05,2.50847094e-05
6.1,3.83366615e-06,8.65288969e-06,1.20834509e-05,1.56424851e-05,1.97860215e-05,2.48289207e-05
6.15,3.83021101e-06,8.62122064e-06,1.2015591e-05,1.55299232e-05,1.96153903e-05,2.45795172e-05
6.2,3.82682775e-06,8.59013723e-06,1.19490634e-05,1.54197324e-05,1.94486351e-05,2.43362636e-05
6.25,3.82351451e-06,8.5596237e-06,1.18838296e-05,1.53118388e-05,1.92856256e-05,2.40989358e-05
6.3,3.82026947e-06,8.52966488e-06,1.18198525e-05,1.52061717e-05,1.91262377e-05,2.38673206e-05
6.35,3.81709088e-06,8.50024612e-06,1.17570966e-05,1.51026634e-05,1.89703524e-05,2.3641215e-05
6.4,3.81397706e-06,8.47135326e-06,1.16955274e-05,1.50012485e-05,1.88178559e-05,2.34204253e-05
6.45,3.81092636e-06,8.44297265e-06,1.16351121e-05,1.49018648e-05,1.86686395e-05,2.32047667e-05
6.5,3.8079372e-06,8.4150911e-06,1.15758187e-05,1.4804452e-05,1.85225988e-05,2.29940631e-05
6.55,3.80500805e-06,8.38769586e-06,1.15176166e-05,1.47089524e-05,1.83796338e-05,2.27881462e-05
6.6,3.80213742e-06,8.36077462e-06,1.14604762e-05,1.46153106e-05,1.8239649e-05,2.25868553e-05
