vds,vb1,vb2,vb3,vb4,vb5,vb6
0.0,1.53478735e-05,4.68937547e-05,7.3242528e-05,9.42593591e-05,0.000110239463,0.000121806703
0.05,1.32972699e-05,4.47874455e-05,7.12737762e-05,9.24667045e-05,0.000108633456,0.000120384087
0.1,1.12557174e-05,4.2687064e-05,6.93103714e-05,9.06786288e-05,0.000107031238,0.000118964541
0.15,9.22705807e-06,4.05926064e-05,6.73522951e-05,8.88951163e-05,0.000105432798,0.000117548056
0.2,7.22078221e-06,3.85040752e-05,6.5399529e-05,8.71161514e-05,0.000103838124,0.000116134621
0.25,5.26253595e-06,3.64214808e-05,6.3452055e-05,8.53417184e-05,0.000102247204,0.000114724229
0.3,3.42454733e-06,3.43448457e-05,6.15098553e-05,8.3571802e-05,0.000100660026,0.000113316871
0.35,1.8831985e-06,3.22742092e-05,5.95729125e-05,8.18063866e-05,9.90765779e-05,0.000111912538
0.4,8.73347834e-07,3.02096354e-05,5.76412095e-05,8.00454569e-05,9.74968486e-05,0.000110511221
0.45,3.89315753e-07,2.81512263e-05,5.57147298e-05,7.82889973e-05,9.59208259e-05,0.000109112911
0.5,1.93985992e-07,2.60991415e-05,5.37934574e-05,7.65369927e-05,9.4348498e-05,0.000107717601
0.55,1.13838799e-07,2.40536323e-05,5.18773771e-05,7.47894277e-05,9.27798531e-05,0.00010632528
0.6,7.74899048e-08,2.20150982e-05,4.99664744e-05,7.3046287e-05,9.12148795e-05,0.000104935941
0.65,5.90964652e-08,1.9984187e-05,4.80607363e-05,7.13075554e-05,8.96535655e-05,0.000103549575
0.7,4.88538696e-08,1.79619738e-05,4.61601511e-05,6.95732178e-05,8.80958995e-05,0.000102166173
0.75,4.26817724e-08,1.5950295e-05,4.42647093e-05,6.78432589e-05,8.65418696e-05,0.000100785726
0.8,3.87153808e-08,1.39523857e-05,4.23744037e-05,6.61176636e-05,8.49914644e-05,9.94082268e-05
0.85,3.60286351e-08,1.19741251e-05,4.0489231e-05,6.43964168e-05,8.34446721e-05,9.80336659e-05
0.9,3.41278104e-08,1.00264781e-05,3.86091928e-05,6.26795032e-05,8.19014811e-05,9.66620349e-05
0.95,3.27333392e-08,8.13012356e-06,3.67342973e-05,6.09669079e-05,8.03618798e-05,9.52933254e-05
1.0,3.16786006e-08,6.32320008e-06,3.48645623e-05,5.92586157e-05,7.88258564e-05,9.39275288e-05
1.05,3.08598398e-08,4.67010841e-06,3.30000192e-05,5.75546114e-05,7.72933995e-05,9.25646366e-05
1.1,3.02099597e-08,3.25916522e-06,3.11407194e-05,5.58548801e-05,7.57644972e-05,9.12046404e-05
1.15,2.96841198e-08,2.1686686e-06,2.92867429e-05,5.41594065e-05,7.42391378e-05,8.98475316e-05
1.2,2.92514795e-08,1.41334848e-06,2.74382136e-05,5.24681757e-05,7.27173097e-05,8.84933017e-05
1.25,2.88902819e-08,9.33694706e-07,2.55953214e-05,5.07811725e-05,7.11990011e-05,8.71419424e-05
1.3,2.85848292e-08,6.41941678e-07,2.37583594e-05,4.90983822e-05,6.96842001e-05,8.57934451e-05
1.35,2.83235657e-08,4.64893662e-07,2.19277835e-05,4.74197898e-05,6.81728949e-05,8.44478014e-05
1.4,2.80978304e-08,3.54923564e-07,2.01043124e-05,4.57453808e-05,6.66650734e-05,8.31050028e-05
1.45,2.79010256e-08,2.84191417e-07,1.82890973e-05,4.4075141e-05,6.51607236e-05,8.17650408e-05
1.5,2.77280508e-08,2.36940058e-07,1.64840133e-05,4.24090565e-05,6.36598333e-05,8.04279069e-05
1.55,2.75749105e-08,2.0419894e-07,1.46921651e-05,4.07471146e-05,6.21623902e-05,7.90935926e-05
1.6,2.7438436e-08,1.80739796e-07,1.2918762e-05,3.90893037e-05,6.06683817e-05,7.77620893e-05
1.65,2.73160866e-08,1.63421204e-07,1.11725972e-05,3.74356139e-05,5.91777952e-05,7.64333885e-05
1.7,2.72058037e-08,1.50293994e-07,9.4683987e-06,3.57860385e-05,5.76906177e-05,7.51074815e-05
1.75,2.7105904e-08,1.40110319e-07,7.83005758e-06,3.4140575e-05,5.62068361e-05,7.37843599e-05
1.8,2.7014999e-08,1.32047525e-07,6.29364246e-06,3.24992275e-05,5.4726437e-05,7.24640147e-05
1.85,2.69319338e-08,1.25548416e-07,4.906742e-06,3.08620104e-05,5.32494065e-05,7.11464373e-05
1.9,2.68557412e-08,1.20226172e-07,3.71895478e-06,2.92289529e-05,5.17757303e-05,6.98316189e-05
1.95,2.67856049e-08,1.15806178e-07,2.76322736e-06,2.76001083e-05,5.03053938e-05,6.85195505e-05
2.0,2.67208321e-08,1.12089469e-07,2.03996132e-06,2.5975566e-05,4.88383818e-05,6.72102232e-05
2.05,2.66608308e-08,1.0892921e-07,1.51834091e-06,2.43554722e-05,4.73746783e-05,6.59036279e-05
2.1,2.66050926e-08,1.06215206e-07,1.15259173e-06,2.27400632e-05,4.59142669e-05,6.45997552e-05
2.15,2.65531784e-08,1.03863483e-07,8.98338502e-07,2.11297174e-05,4.44571302e-05,6.32985959e-05
2.2,2.65047072e-08,1.01809158e-07,7.20520398e-07,1.9525043e-05,4.30032499e-05,6.20001405e-05
2.25,2.64593468e-08,1.00001448e-07,5.94269479e-07,1.79270194e-05,4.15526069e-05,6.07043791e-05
2.3,2.64168061e-08,9.84001437e-08,5.02855225e-07,1.63372324e-05,4.01051807e-05,5.94113018e-05
2.35,2.63768294e-08,9.69730618e-08,4.35247118e-07,1.47582584e-05,3.86609497e-05,5.81208985e-05
2.4,2.6339191e-08,9.56941865e-08,3.84182176e-07,1.31942838e-05,3.72198914e-05,5.68331586e-05
2.45,2.63036906e-08,9.45422943e-08,3.448338e-07,1.16520659e-05,3.57819815e-05,5.55480713e-05
2.5,2.62701504e-08,9.34999243e-08,3.13946898e-07,1.01423102e-05,3.43471952e-05,5.42656254e-05
2.55,2.62384117e-08,9.25525972e-08,2.89287972e-07,8.68135854e-06,3.29155065e-05,5.29858093e-05
2.6,2.62083326e-08,9.16882185e-08,2.69296501e-07,7.29258276e-06,3.14868897e-05,5.17086109e-05
2.65,2.61797856e-08,9.08966165e-08,2.52862391e-07,6.0060561e-06,3.00613203e-05,5.04340174e-05
2.7,2.6152656e-08,9.01691819e-08,2.39182162e-07,4.85458443e-06,2.86387768e-05,4.91620154e-05
2.75,2.61268404e-08,8.94985846e-08,2.27664629e-07,3.86558531e-06,2.72192451e-05,4.78925909e-05
2.8,2.61022451e-08,8.88785486e-08,2.1786806e-07,3.05206545e-06,2.58027239e-05,4.66257287e-05
2.85,2.60787852e-08,8.83036725e-08,2.09457617e-07,2.40846912e-06,2.43892348e-05,4.53614129e-05
2.9,2.60563835e-08,8.77692842e-08,2.02176078e-07,1.91411503e-06,2.29788383e-05,4.40996263e-05
2.95,2.60349696e-08,8.72713244e-08,1.95823381e-07,1.54108863e-06,2.15716602e-05,4.28403502e-05
3.0,2.60144794e-08,8.68062502e-08,1.90242124e-07,1.26149373e-06,2.01679341e-05,4.15835647e-05
3.05,2.59948542e-08,8.6370957e-08,1.85307144e-07,1.05150695e-06,1.87680707e-05,4.03292478e-05
3.1,2.597604e-08,8.59627136e-08,1.80917922e-07,8.92537542e-07,1.73727706e-05,3.90773754e-05
3.15,2.59579874e-08,8.55791083e-08,1.76992984e-07,7.70794937e-07,1.59832036e-05,3.78279213e-05
3.2,2.5940651e-08,8.52180043e-08,1.7346573e-07,6.76310594e-07,1.46012941e-05,3.65808564e-05
3.25,2.59239887e-08,8.48775019e-08,1.70281277e-07,6.01951856e-07,1.32301594e-05,3.53361486e-05
3.3,2.59079619e-08,8.4555907e-08,1.67394068e-07,5.42617425e-07,1.18747524e-05,3.4093762e-05
3.35,2.58925349e-08,8.42517042e-08,1.64766014e-07,4.94638739e-07,1.05427296e-05,3.28536571e-05
3.4,2.58776744e-08,8.39635341e-08,1.62365073e-07,4.55353853e-07,9.24545321e-06,3.16157898e-05
3.45,2.58633497e-08,8.36901742e-08,1.60164116e-07,4.22810192e-07,7.99879479e-06,3.03801115e-05
3.5,2.58495323e-08,8.34305217e-08,1.58140049e-07,3.95558624e-07,6.82305936e-06,2.91465685e-05
3.55,2.58361957e-08,8.31835799e-08,1.56273102e-07,3.72510691e-07,5.74115412e-06,2.79151024e-05
3.6,2.58233152e-08,8.29484456e-08,1.54546268e-07,3.52839085e-07,4.77460868e-06,2.6685651e-05
3.65,2.58108677e-08,8.27242984e-08,1.52944845e-07,3.35907708e-07,3.93845284e-06,2.54581495e-05
3.7,2.57988316e-08,8.25103917e-08,1.5145607e-07,3.21222051e-07,3.23733519e-06,2.42325344e-05
3.75,2.5787187e-08,8.23060445e-08,1.5006881e-07,3.08393623e-07,2.66497058e-06,2.30087496e-05
3.8,2.5775915e-08,8.21106343e-08,1.4877332e-07,2.97114174e-07,2.20691649e-06,2.17867572e-05
3.85,2.5764998e-08,8.19235915e-08,1.47561036e-07,2.87136825e-07,1.84480182e-06,2.0566556e-05
3.9,2.57544195e-08,8.17443932e-08,1.46424403e-07,2.78262098e-07,1.56001242e-06,1.93482125e-05
3.95,2.5744164e-08,8.15725591e-08,1.45356735e-07,2.70327474e-07,1.33592423e-06,1.81319103e-05
4.0,2.57342168e-08,8.14076472e-08,1.44352095e-07,2.63199516e-07,1.15878213e-06,1.69180311e-05
4.05,2.57245644e-08,8.12492497e-08,1.43405197e-07,2.56767855e-07,1.01771969e-06,1.57072821e-05
4.1,2.57151937e-08,8.10969903e-08,1.42511315e-07,2.50940579e-07,9.04379546e-07,1.45008929e-05
4.15,2.57060928e-08,8.09505209e-08,1.41666219e-07,2.45640646e-07,8.12422709e-07,1.33009117e-05
4.2,2.569725e-08,8.08095191e-08,1.40866107e-07,2.40803087e-07,7.37066731e-07,1.21106269e-05
4.25,2.56886546e-08,8.06736858e-08,1.40107555e-07,2.36372798e-07,6.74702537e-07,1.09351248e-05
4.3,2.56802963e-08,8.05427433e-08,1.39387474e-07,2.32302792e-07,6.22595972e-07,9.78193472e-06
4.35,2.56721656e-08,8.04164335e-08,1.38703068e-07,2.28552795e-07,5.7866296e-07,8.66159849e-06
4.4,2.56642532e-08,8.02945159e-08,1.38051799e-07,2.25088122e-07,5.41303007e-07,7.58783529e-06
4.45,2.56565505e-08,8.01767663e-08,1.37431363e-07,2.21878766e-07,5.09276852e-07,6.57685263e-06
4.5,2.56490492e-08,8.00629756e-08,1.36839661e-07,2.18898653e-07,4.81616696e-07,5.64547266e-06
4.55,2.56417417e-08,7.99529481e-08,1.36274776e-07,2.16125037e-07,4.57560206e-07,4.80826049e-06
4.6,2.56346205e-08,7.98465011e-08,1.35734958e-07,2.13537995e-07,4.36501769e-07,4.07456961e-06
4.65,2.56276787e-08,7.97434632e-08,1.35218601e-07,2.11120014e-07,4.1795628e-07,3.44675304e-06
4.7,2.56209094e-08,7.9643674e-08,1.34724233e-07,2.08855644e-07,4.01532049e-07,2.92027647e-06
4.75,2.56143065e-08,7.95469829e-08,1.34250501e-07,2.06731212e-07,3.86910387e-07,2.48545789e-06
4.8,2.56078639e-08,7.94532482e-08,1.3379616e-07,2.04734579e-07,3.73830098e-07,2.12987507e-06
4.85,2.56015758e-08,7.9362337e-08,1.3336006e-07,2.02854931e-07,3.62075616e-07,1.84052002e-06
4.9,2.55954367e-08,7.9274124e-08,1.3294114e-07,2.01082614e-07,3.51467854e-07,1.60524601e-06
4.95,2.55894416e-08,7.91884914e-08,1.32538419e-07,1.99408978e-07,3.41857099e-07,1.41349276e-06
5.0,2.55835853e-08,7.9105328e-08,1.3215099e-07,1.97826258e-07,3.33117444e-07,1.2564882e-06
5.05,2.55778632e-08,7.90245289e-08,1.31778007e-07,1.96327463e-07,3.2514241e-07,1.127151e-06
5.1,2.55722707e-08,7.8945995e-08,1.3141869e-07,1.94906286e-07,3.17841462e-07,1.01986123e-06
5.15,2.55668034e-08,7.88696328e-08,1.3107231e-07,1.9355702e-07,3.11137234e-07,9.3019918e-07
5.2,2.55614573e-08,7.87953537e-08,1.3073819e-07,1.92274494e-07,3.04963295e-07,8.54701601e-07
5.25,2.55562284e-08,7.87230739e-08,1.30415698e-07,1.91054009e-07,2.99262341e-07,7.90654455e-07
5.3,2.55511129e-08,7.86527142e-08,1.30104246e-07,1.89891289e-07,2.93984731e-07,7.35925235e-07
5.35,2.55461072e-08,7.85841991e-08,1.29803281e-07,1.88782433e-07,2.89087282e-07,6.88831156e-07
5.4,2.55412078e-08,7.85174575e-08,1.2951229e-07,1.87723878e-07,2.84532281e-07,6.48037175e-07
5.45,2.55364114e-08,7.84524215e-08,1.29230791e-07,1.86712361e-07,2.80286673e-07,6.12477747e-07
5.5,2.55317147e-08,7.83890269e-08,1.28958332e-07,1.85744891e-07,2.76321382e-07,5.81296988e-07
5.55,2.55271148e-08,7.83272125e-08,1.28694488e-07,1.8481872e-07,2.72610743e-07,5.53802933e-07
5.6,2.55226087e-08,7.82669201e-08,1.28438862e-07,1.83931319e-07,2.69132031e-07,5.2943248e-07
5.65,2.55181936e-08,7.82080944e-08,1.28191081e-07,1.83080359e-07,2.65865063e-07,5.07724429e-07
5.7,2.55138667e-08,7.81506828e-08,1.27950791e-07,1.8226369e-07,2.62791859e-07,4.88298659e-07
5.75,2.55096255e-08,7.8094635e-08,1.27717663e-07,1.81479325e-07,2.59896359e-07,4.70839961e-07
5.8,2.55054675e-08,7.80399031e-08,1.27491383e-07,1.80725425e-07,2.57164178e-07,4.55085408e-07
5.85,2.55013903e-08,7.79864416e-08,1.27271657e-07,1.80000285e-07,2.54582397e-07,4.40814438e-07
5.9,2.54973916e-08,7.79342069e-08,1.27058207e-07,1.79302325e-07,2.52139387e-07,4.27841027e-07
5.95,2.54934691e-08,7.78831574e-08,1.26850771e-07,1.78630073e-07,2.49824657e-07,4.1600746e-07
6.0,2.54896207e-08,7.78332533e-08,1.26649101e-07,1.77982165e-07,2.47628715e-07,4.05179362e-07
6.05,2.54858444e-08,7.77844566e-08,1.26452961e-07,1.77357325e-07,2.45542962e-07,3.95241698e-07
6.1,2.54821381e-08,7.77367311e-08,1.26262129e-07,1.76754367e-07,2.43559587e-07,3.86095547e-07
6.15,2.54785e-08,7.7690042e-08,1.26076395e-07,1.76172182e-07,2.4167148e-07,3.77655476e-07
6.2,2.54749282e-08,7.7644356e-08,1.25895559e-07,1.75609735e-07,2.39872161e-07,3.69847394e-07
6.25,2.54714209e-08,7.75996412e-08,1.2571943e-07,1.75066055e-07,2.38155707e-07,3.62606799e-07
6.3,2.54679764e-08,7.75558672e-08,1.2554783e-07,1.74540236e-07,2.36516701e-07,3.55877323e-07
6.35,2.54645931e-08,7.75130046e-08,1.25380588e-07,1.74031427e-07,2.34950176e-07,3.49609531e-07
6.4,2.54612694e-08,7.74710254e-08,1.2521754e-07,1.73538829e-07,2.3345157e-07,3.43759917e-07
6.45,2.54580037e-08,7.74299026e-08,1.25058532e-07,1.73061692e-07,2.32016689e-07,3.38290075e-07
6.5,2.54547946e-08,7.73896105e-08,1.24903418e-07,1.72599312e-07,2.30641669e-07,3.33165985e-07
6.55,2.54516405e-08,7.73501242e-08,1.24752057e-07,1.72151025e-07,2.29322944e-07,3.28357432e-07
6.6,2.54485402e-08,7.73114198e-08,1.24604315e-07,1.71716207e-07,2.28057223e-07,3.23837497e-07
