vds,vb1,vb2,vb3,vb4,vb5,vb6
0.0,1.065727e-06,3.01379068e-06,4.65645609e-06,5.98161788e-06,7.00476467e-06,7.76111699e-06
0.05,9.3930951e-07,2.88440483e-06,4.53451584e-06,5.86960134e-06,6.90352728e-06,7.67066519e-06
0.1,8.13432331e-07,2.75544125e-06,4.41295771e-06,5.75791381e-06,6.80256417e-06,7.5804373e-06
0.15,6.88221426e-07,2.62689887e-06,4.29178012e-06,5.64655397e-06,6.70187435e-06,7.4904326e-06
0.2,5.63958183e-07,2.49877689e-06,4.17098149e-06,5.53552054e-06,6.60145681e-06,7.40065032e-06
0.25,4.41324572e-07,2.37107482e-06,4.05056024e-06,5.4248122e-06,6.50131056e-06,7.31108974e-06
0.3,3.2210123e-07,2.24379261e-06,3.93051483e-06,5.31442768e-06,6.40143461e-06,7.22175011e-06
0.35,2.11013665e-07,2.11693091e-06,3.81084371e-06,5.20436567e-06,6.30182797e-06,7.1326307e-06
0.4,1.18617758e-07,1.99049129e-06,3.69154536e-06,5.0946249e-06,6.20248967e-06,7.04373079e-06
0.45,5.75945792e-08,1.86447672e-06,3.57261825e-06,4.98520407e-06,6.1034187e-06,6.95504963e-06
0.5,2.70910961e-08,1.7388923e-06,3.45406088e-06,4.87610192e-06,6.00461411e-06,6.86658651e-06
0.55,1.40371972e-08,1.61374637e-06,3.33587179e-06,4.76731715e-06,5.9060749e-06,6.77834069e-06
0.6,8.40807204e-09,1.48905245e-06,3.21804953e-06,4.65884849e-06,5.80780011e-06,6.69031146e-06
0.65,5.76384026e-09,1.3648324e-06,3.10059266e-06,4.55069467e-06,5.70978877e-06,6.6024981e-06
0.7,4.39300937e-09,1.2411221e-06,2.98349983e-06,4.4428544e-06,5.6120399e-06,6.51489989e-06
0.75,3.61647347e-09,1.11798153e-06,2.86676971e-06,4.3353264e-06,5.51455253e-06,6.4275161e-06
0.8,3.14264719e-09,9.95513463e-07,2.75040105e-06,4.22810939e-06,5.41732569e-06,6.34034603e-06
0.85,2.83526583e-09,8.7389898e-07,2.63439271e-06,4.12120209e-06,5.32035843e-06,6.25338897e-06
0.9,2.62553344e-09,7.53466428e-07,2.51874367e-06,4.0146032e-06,5.22364977e-06,6.16664419e-06
0.95,2.47630434e-09,6.34825547e-07,2.40345313e-06,3.90831143e-06,5.12719875e-06,6.080111e-06
1.0,2.36633356e-09,5.19120351e-07,2.28852055e-06,3.80232548e-06,5.03100439e-06,5.99378869e-06
1.05,2.28285609e-09,4.0845446e-07,2.17394581e-06,3.69664402e-06,4.93506574e-06,5.90767654e-06
1.1,2.2178697e-09,3.06399489e-07,2.05972935e-06,3.59126573e-06,4.83938182e-06,5.82177385e-06
1.15,2.16617017e-09,2.17985677e-07,1.94587251e-06,3.48618927e-06,4.74395166e-06,5.73607991e-06
1.2,2.1242629e-09,1.48045065e-07,1.83237795e-06,3.38141327e-06,4.64877428e-06,5.65059403e-06
1.25,2.0897344e-09,9.81841348e-08,1.71925034e-06,3.27693635e-06,4.5538487e-06,5.5653155e-06
1.3,2.06087598e-09,6.56119121e-08,1.60649747e-06,3.17275711e-06,4.45917395e-06,5.48024361e-06
1.35,2.03645096e-09,4.53419058e-08,1.49413212e-06,3.06887412e-06,4.36474902e-06,5.39537766e-06
1.4,2.01554652e-09,3.28409977e-08,1.38217499e-06,2.9652859e-06,4.27057292e-06,5.31071695e-06
1.45,1.99747683e-09,2.49935255e-08,1.27065984e-06,2.86199095e-06,4.17664464e-06,5.22626076e-06
1.5,1.98171839e-09,1.99120462e-08,1.15964207e-06,2.75898772e-06,4.08296315e-06,5.14200841e-06
1.55,1.96786574e-09,1.65032605e-08,1.0492137e-06,2.65627464e-06,3.98952744e-06,5.05795918e-06
1.6,1.95560072e-09,1.41352965e-08,9.39529568e-07,2.55385006e-06,3.89633644e-06,4.97411235e-06
1.65,1.94467068e-09,1.2436192e-08,8.30852894e-07,2.45171232e-06,3.80338909e-06,4.89046723e-06
1.7,1.93487275e-09,1.11809419e-08,7.23633421e-07,2.34985972e-06,3.7106843e-06,4.80702309e-06
1.75,1.92604243e-09,1.02292859e-08,6.18634282e-07,2.24829054e-06,3.61822095e-06,4.72377923e-06
1.8,1.91804502e-09,9.49113545e-09,5.1711485e-07,2.1470031e-06,3.5259979e-06,4.64073491e-06
1.85,1.91076935e-09,8.90695935e-09,4.21027324e-07,2.0459958e-06,3.43401397e-06,4.55788941e-06
1.9,1.9041229e-09,8.43636746e-09,3.33063143e-07,1.94526726e-06,3.34226794e-06,4.47524201e-06
1.95,1.89802808e-09,8.05128548e-09,2.56253254e-07,1.8448165e-06,3.25075854e-06,4.39279195e-06
2.0,1.89241944e-09,7.73176452e-09,1.92980721e-07,1.74464326e-06,3.15948445e-06,4.31053851e-06
2.05,1.88724135e-09,7.46334219e-09,1.43907936e-07,1.64474855e-06,3.06844428e-06,4.22848091e-06
2.1,1.8824463e-09,7.23534067e-09,1.07724677e-07,1.54513556e-06,2.97763657e-06,4.1466184e-06
2.15,1.87799345e-09,7.03974438e-09,8.1905659e-08,1.4458111e-06,2.88705976e-06,4.0649502e-06
2.2,1.87384752e-09,6.87044446e-09,6.37324431e-08,1.34678817e-06,2.7967122e-06,3.98347551e-06
2.25,1.86997789e-09,6.72272041e-09,5.09189156e-08,1.24809008e-06,2.70659212e-06,3.90219352e-06
2.3,1.86635787e-09,6.59287808e-09,4.1776904e-08,1.14975757e-06,2.61669761e-06,3.82110342e-06
2.35,1.86296406e-09,6.47799275e-09,3.51402467e-08,1.05186067e-06,2.52702659e-06,3.74020435e-06
2.4,1.85977591e-09,6.37572402e-09,3.02266482e-08,9.54518651e-07,2.43757679e-06,3.65949545e-06
2.45,1.85677527e-09,6.28418051e-09,2.65151321e-08,8.57932835e-07,2.34834574e-06,3.5789758e-06
2.5,1.85394604e-09,6.20181976e-09,2.36569125e-08,7.62438931e-07,2.25933072e-06,3.49864448e-06
2.55,1.85127393e-09,6.12737319e-09,2.14156373e-08,6.68585079e-07,2.17052872e-06,3.41850053e-06
2.6,1.84874619e-09,6.05978929e-09,1.9628639e-08,5.77234314e-07,2.08193642e-06,3.33854292e-06
2.65,1.84635141e-09,5.99819012e-09,1.81820532e-08,4.89665987e-07,1.99355019e-06,3.25877061e-06
2.7,1.84407933e-09,5.94183763e-09,1.6994797e-08,4.07604014e-07,1.90536603e-06,3.17918246e-06
2.75,1.84192076e-09,5.89010749e-09,1.6008155e-08,3.33056002e-07,1.81737962e-06,3.09977731e-06
2.8,1.83986736e-09,5.84246838e-09,1.51789224e-08,2.67889279e-07,1.72958641e-06,3.02055389e-06
2.85,1.83791162e-09,5.79846564e-09,1.44748232e-08,2.13264933e-07,1.64198174e-06,2.94151086e-06
2.9,1.83604672e-09,5.75770816e-09,1.38714017e-08,1.692578e-07,1.55456126e-06,2.86264677e-06
2.95,1.83426646e-09,5.71985788e-09,1.33498817e-08,1.34915485e-07,1.46732148e-06,2.78396007e-06
3.0,1.83256519e-09,5.68462121e-09,1.2895669e-08,1.08671641e-07,1.38026101e-06,2.70544904e-06
3.05,1.83093775e-09,5.65174206e-09,1.24972903e-08,8.8815645e-08,1.29338246e-06,2.62711184e-06
3.1,1.82937943e-09,5.62099618e-09,1.21456293e-08,7.38055753e-08,1.20669588e-06,2.54894641e-06
3.15,1.82788592e-09,5.59218639e-09,1.18333709e-08,6.23941605e-08,1.12022452e-06,2.47095051e-06
3.2,1.82645323e-09,5.56513869e-09,1.15545914e-08,5.3633106e-08,1.03401437e-06,2.39312161e-06
3.25,1.82507772e-09,5.53969902e-09,1.13044527e-08,4.68251346e-08,9.48149761e-07,2.31545691e-06
3.3,1.82375603e-09,5.51573047e-09,1.1078972e-08,4.14653708e-08,8.62778191e-07,2.23795327e-06
3.35,1.82248506e-09,5.49311105e-09,1.08748457e-08,3.7189726e-08,7.7814787e-07,2.16060714e-06
3.4,1.82126193e-09,5.4717317e-09,1.06893152e-08,3.37348588e-08,6.9466066e-07,2.0834145e-06
3.45,1.82008399e-09,5.45149465e-09,1.05200613e-08,3.09089281e-08,6.12937343e-07,2.0063708e-06
3.5,1.81894878e-09,5.432312e-09,1.03651228e-08,2.85708369e-08,5.33878903e-07,1.92947087e-06
3.55,1.81785401e-09,5.41410456e-09,1.02228315e-08,2.66156833e-08,4.58685651e-07,1.85270884e-06
3.6,1.81679756e-09,5.39680077e-09,1.00917609e-08,2.49645883e-08,3.88778271e-07,1.77607806e-06
3.65,1.81577744e-09,5.38033581e-09,9.97068481e-09,2.3557562e-08,3.25581866e-07,1.699571e-06
3.7,1.81479182e-09,5.36465087e-09,9.85854451e-09,2.23484692e-08,2.70210473e-07,1.62317926e-06
3.75,1.81383896e-09,5.34969245e-09,9.75442144e-09,2.13014454e-08,2.23185744e-07,1.54689356e-06
3.8,1.81291728e-09,5.33541177e-09,9.65751541e-09,2.03883226e-08,1.84337212e-07,1.47070392e-06
3.85,1.81202525e-09,5.32176429e-09,9.5671265e-09,1.95867599e-08,1.52922222e-07,1.39460006e-06
3.9,1.81116147e-09,5.30870925e-09,9.48264016e-09,1.8878874e-08,1.27872435e-07,1.31857219e-06
3.95,1.81032462e-09,5.29620929e-09,9.40351483e-09,1.82502244e-08,1.0803736e-07,1.2426125e-06
4.0,1.80951346e-09,5.28423008e-09,9.32927165e-09,1.76890545e-08,9.2349255e-08,1.1667178e-06
4.05,1.80872682e-09,5.27274006e-09,9.25948579e-09,1.71857187e-08,7.99008367e-08,1.09089399e-06
4.1,1.80796362e-09,5.26171014e-09,9.19377922e-09,1.67322455e-08,6.99614929e-08,1.01516348e-06
4.15,1.80722282e-09,5.25111348e-09,9.13181451e-09,1.63220019e-08,6.19613235e-08,9.39577052e-07
4.2,1.80650345e-09,5.24092525e-09,9.07328964e-09,1.5949433e-08,5.54634887e-08,8.64232292e-07
4.25,1.80580459e-09,5.2311225e-09,9.01793357e-09,1.56098584e-08,5.01357915e-08,7.89300556e-07
4.3,1.80512538e-09,5.22168393e-09,8.96550241e-09,1.52993121e-08,4.57260284e-08,7.15063743e-07
4.35,1.80446501e-09,5.21258979e-09,8.91577618e-09,1.50144152e-08,4.20422594e-08,6.41958498e-07
4.4,1.8038227e-09,5.2038217e-09,8.86855598e-09,1.47522742e-08,3.89376685e-08,5.70618186e-07
4.45,1.80319773e-09,5.19536257e-09,8.82366157e-09,1.45103997e-08,3.62992064e-08,5.01891901e-07
4.5,1.8025894e-09,5.18719648e-09,8.78092927e-09,1.42866397e-08,3.40391616e-08,4.36810656e-07
4.55,1.80199706e-09,5.17930858e-09,8.74021013e-09,1.40791264e-08,3.2088932e-08,3.7647635e-07
4.6,1.80142009e-09,5.17168498e-09,8.70136833e-09,1.38862314e-08,3.03944191e-08,3.21880677e-07
4.65,1.8008579e-09,5.16431272e-09,8.66427978e-09,1.370653e-08,2.89126113e-08,2.73708911e-07
4.7,1.80030994e-09,5.15717966e-09,8.62883092e-09,1.3538771e-08,2.76090364e-08,2.32209584e-07
4.75,1.79977566e-09,5.15027441e-09,8.59491761e-09,1.33818516e-08,2.64558511e-08,1.97183449e-07
4.8,1.79925457e-09,5.14358631e-09,8.56244422e-09,1.32347966e-08,2.5430397e-08,1.68081399e-07
4.85,1.79874618e-09,5.13710534e-09,8.53132276e-09,1.30967409e-08,2.45141028e-08,1.44153575e-07
4.9,1.79825004e-09,5.13082209e-09,8.50147216e-09,1.29669149e-08,2.36916427e-08,1.24589509e-07
4.95,1.79776572e-09,5.12472771e-09,8.47281761e-09,1.28446317e-08,2.29502865e-08,1.08616641e-07
5.0,1.79729279e-09,5.11881385e-09,8.44528996e-09,1.27292767e-08,2.22793948e-08,9.55531176e-08
5.05,1.79683087e-09,5.11307266e-09,8.41882523e-09,1.26202985e-08,2.16700228e-08,8.48258789e-08
5.1,1.79637957e-09,5.10749674e-09,8.3933641e-09,1.25172013e-08,2.11146088e-08,7.59679383e-08
5.15,1.79593853e-09,5.10207909e-09,8.36885155e-09,1.24195378e-08,2.06067259e-08,6.86058067e-08
5.2,1.79550742e-09,5.09681311e-09,8.34523644e-09,1.23269039e-08,2.01408849e-08,6.24438588e-08
5.25,1.79508589e-09,5.09169255e-09,8.32247119e-09,1.22389338e-08,1.97123747e-08,5.72491872e-08
5.3,1.79467365e-09,5.08671151e-09,8.30051148e-09,1.2155295e-08,1.93171335e-08,5.28384297e-08
5.35,1.79427037e-09,5.0818644e-09,8.27931599e-09,1.20756857e-08,1.89516446e-08,4.90669487e-08
5.4,1.79387579e-09,5.07714591e-09,8.25884613e-09,1.19998304e-08,1.86128507e-08,4.58202269e-08
5.45,1.79348961e-09,5.07255102e-09,8.23906585e-09,1.19274777e-08,1.82980834e-08,4.30071511e-08
5.5,1.79311158e-09,5.06807497e-09,8.2199414e-09,1.18583977e-08,1.80050051e-08,4.0554821e-08
5.55,1.79274144e-09,5.06371323e-09,8.20144118e-09,1.17923797e-08,1.77315609e-08,3.84045566e-08
5.6,1.79237896e-09,5.0594615e-09,8.18353557e-09,1.17292304e-08,1.74759383e-08,3.65088297e-08
5.65,1.79202389e-09,5.0553157e-09,8.16619677e-09,1.1668772e-08,1.72365331e-08,3.48289023e-08
5.7,1.79167602e-09,5.05127193e-09,8.14939866e-09,1.16108408e-08,1.70119219e-08,3.33330039e-08
5.75,1.79133512e-09,5.04732649e-09,8.13311669e-09,1.15552858e-08,1.68008372e-08,3.19949193e-08
5.8,1.791001e-09,5.04347586e-09,8.11732775e-09,1.15019676e-08,1.66021476e-08,3.07928882e-08
5.85,1.79067345e-09,5.03971669e-09,8.10201009e-09,1.14507573e-08,1.64148404e-08,2.97087446e-08
5.9,1.79035228e-09,5.03604577e-09,8.0871432e-09,1.14015355e-08,1.62380068e-08,2.87272389e-08
5.95,1.79003732e-09,5.03246003e-09,8.07270772e-09,1.13541915e-08,1.60708292e-08,2.78355017e-08
6.0,1.78972838e-09,5.02895658e-09,8.05868538e-09,1.13086225e-08,1.59125704e-08,2.70226168e-08
6.05,1.78942529e-09,5.02553262e-09,8.04505893e-09,1.12647328e-08,1.57625641e-08,2.627928e-08
6.1,1.7891279e-09,5.0221855e-09,8.03181203e-09,1.12224336e-08,1.56202068e-08,2.55975235e-08
6.15,1.78883604e-09,5.01891266e-09,8.01892925e-09,1.11816419e-08,1.54849508e-08,2.49704941e-08
6.2,1.78854956e-09,5.01571168e-09,8.00639594e-09,1.11422803e-08,1.5356298e-08,2.43922719e-08
6.25,1.78826831e-09,5.01258023e-09,7.99419826e-09,1.11042768e-08,1.52337945e-08,2.38577227e-08
6.3,1.78799216e-09,5.00951607e-09,7.98232306e-09,1.10675636e-08,1.51170259e-08,2.33623762e-08
6.35,1.78772098e-09,5.00651708e-09,7.97075786e-09,1.10320777e-08,1.50056132e-08,2.29023257e-08
6.4,1.78745462e-09,5.00358121e-09,7.95949081e-09,1.09977599e-08,1.48992092e-08,2.24741454e-08
6.45,1.78719296e-09,5.0007065e-09,7.94851067e-09,1.09645545e-08,1.47974954e-08,2.20748205e-08
6.5,1.78693588e-09,4.99789106e-09,7.93780674e-09,1.09324095e-08,1.4700179e-08,2.17016897e-08
6.55,1.78668326e-09,4.99513309e-09,7.92736883e-09,1.09012759e-08,1.46069904e-08,2.13523963e-08
6.6,1.78643499e-09,4.99243085e-09,7.91718726e-09,1.08711077e-08,1.45176812e-08,2.10248472e-08
