vds,vb1,vb2,vb3,vb4,vb5,vb6
0.0,5.15778314e-05,0.000156136364,0.000234793392,0.000292668385,0.000333076571,0.000359506993
0.05,4.25548375e-05,0.000145726624,0.000224001754,0.000282068418,0.000323057994,0.000350283651
0.1,3.37950777e-05,0.000135586491,0.000213481009,0.000271715599,0.000313251876,0.000341236323
0.15,2.53636359e-05,0.000125707234,0.000203222212,0.00026160231,0.000303652253,0.000332360558
0.2,1.74771191e-05,0.000116080681,0.000193216774,0.000251721205,0.000294253353,0.000323652037
0.25,1.07830018e-05,0.000106699307,0.000183456435,0.000242065189,0.000285049588,0.000315106567
0.3,6.37083377e-06,9.75564233e-05,0.00017393326,0.000232627406,0.000276035539,0.000306720069
0.35,4.2775005e-06,8.86465005e-05,0.000164639637,0.000223401225,0.000267205945,0.000298488574
0.4,3.35612229e-06,7.99657712e-05,0.000155568287,0.000214380242,0.000258555699,0.000290408214
0.45,2.86895309e-06,7.15133802e-05,0.000146712279,0.000205558275,0.000250079847,0.000282475225
0.5,2.55713563e-06,6.32937049e-05,0.000138065041,0.000196929372,0.000241773581,0.000274685937
0.55,2.33240703e-06,5.53212137e-05,0.000129620377,0.000188487809,0.000233632251,0.00026703678
0.6,2.15907558e-06,4.76307993e-05,0.000121372489,0.000180228099,0.000225651356,0.000259524283
0.65,2.01976914e-06,4.02988793e-05,0.000113316004,0.000172144981,0.000217826552,0.000252145072
0.7,1.90470386e-06,3.34788565e-05,0.000105446019,0.000164233427,0.00021015365,0.000244895874
0.75,1.8077683e-06,2.74268008e-05,9.77581867e-05,0.000156488627,0.00020262862,0.000237773516
0.8,1.7248603e-06,2.24266424e-05,9.02488626e-05,0.00014890598,0.000195247585,0.000230774926
0.85,1.65308261e-06,1.85849299e-05,8.29153914e-05,0.000141481076,0.00018800682,0.000223897136
0.9,1.59031112e-06,1.57453665e-05,7.57566623e-05,0.000134209667,0.000180902747,0.000217137279
0.95,1.53494348e-06,1.36424589e-05,6.87742551e-05,0.00012708764,0.000173931927,0.000210492588
1.0,1.48574334e-06,1.20483209e-05,6.19749177e-05,0.00012011096,0.000167091052,0.000203960394
1.05,1.44173892e-06,1.08057624e-05,5.53760366e-05,0.000113275599,0.000160376929,0.000197538127
1.1,1.40215452e-06,9.81227116e-06,4.90170598e-05,0.000106577422,0.000153786465,0.000191223307
1.15,1.36636262e-06,9.00053538e-06,4.29784022e-05,0.000100012011,0.000147316647,0.000185013544
1.2,1.33384974e-06,8.32516333e-06,3.73954628e-05,9.35743878e-05,0.00014096451,0.000178906528
1.25,1.30419137e-06,7.75460933e-06,3.2431691e-05,8.72585932e-05,0.000134727099,0.000172900027
1.3,1.27703337e-06,7.26632153e-06,2.82000752e-05,8.10571005e-05,0.000128601416,0.000166991875
1.35,1.25207788e-06,6.84376736e-06,2.47051924e-05,7.49602325e-05,0.000122584334,0.000161179963
1.4,1.22907249e-06,6.47455722e-06,2.18624925e-05,6.89563404e-05,0.000116672486,0.000155462225
1.45,1.20780192e-06,6.14922582e-06,1.95535743e-05,6.3035086e-05,0.000110862075,0.000149836624
1.5,1.18808134e-06,5.86041873e-06,1.76653155e-05,5.71986867e-05,0.000105148601,0.000144301129
1.55,1.16975122e-06,5.60233567e-06,1.61045297e-05,5.14854049e-05,9.95264327e-05,0.000138853686
1.6,1.15267312e-06,5.37034099e-06,1.47990832e-05,4.59951345e-05,9.39881558e-05,0.000133492183
1.65,1.13672628e-06,5.16068557e-06,1.36943947e-05,4.08823387e-05,8.85236441e-05,0.000128214389
1.7,1.12180495e-06,4.9703048e-06,1.27493197e-05,3.62966255e-05,8.31188747e-05,0.000123017883
1.75,1.10781607e-06,4.79666925e-06,1.19326744e-05,3.23171156e-05,7.77548894e-05,0.000117899932
1.8,1.09467746e-06,4.63767287e-06,1.12205967e-05,2.893758e-05,7.24082862e-05,0.000112857323
1.85,1.08231626e-06,4.49154802e-06,1.05946191e-05,2.60957382e-05,6.70565009e-05,0.000107886107
1.9,1.07066764e-06,4.3568002e-06,1.00402803e-05,2.37087475e-05,6.16926981e-05,0.000102981219
1.95,1.05967374e-06,4.23215727e-06,9.54612519e-06,2.16954257e-05,5.63510065e-05,9.81359077e-05
2.0,1.04928276e-06,4.11652963e-06,9.10297911e-06,1.99854945e-05,5.11272102e-05,9.33409365e-05
2.05,1.03944817e-06,4.00897865e-06,8.70341779e-06,1.85214858e-05,4.61665673e-05,8.8583512e-05
2.1,1.03012809e-06,3.90869141e-06,8.34137499e-06,1.72575858e-05,4.16128628e-05,8.38461061e-05
2.15,1.02128469e-06,3.81496034e-06,8.01184945e-06,1.61576027e-05,3.75565336e-05,7.91057744e-05
2.2,1.01288372e-06,3.72716675e-06,7.71068355e-06,1.51929595e-05,3.40190304e-05,7.43355731e-05
2.25,1.00489414e-06,3.64476724e-06,7.43439421e-06,1.43409978e-05,3.09699116e-05,6.95110468e-05
2.3,9.97287681e-07,3.56728267e-06,7.18004254e-06,1.35836337e-05,2.83526627e-05,6.46249133e-05
2.35,9.90038604e-07,3.49428891e-06,6.9451323e-06,1.29063234e-05,2.61040712e-05,5.97080944e-05
2.4,9.83123397e-07,3.42540914e-06,6.72753011e-06,1.22972742e-05,2.41646167e-05,5.48438696e-05
2.45,9.76520546e-07,3.36030751e-06,6.52540218e-06,1.17468466e-05,2.24825515e-05,5.0156453e-05
2.5,9.70210325e-07,3.29868366e-06,6.33716378e-06,1.12470979e-05,2.10146303e-05,4.57729707e-05
2.55,9.6417462e-07,3.24026819e-06,6.16143853e-06,1.07914335e-05,1.9725393e-05,4.17841422e-05
2.6,9.58396763e-07,3.18481877e-06,5.9970254e-06,1.03743382e-05,1.85859862e-05,3.82282099e-05
2.65,9.52861395e-07,3.13211682e-06,5.84287174e-06,9.99116812e-06,1.75729629e-05,3.50986808e-05
2.7,9.47554337e-07,3.08196467e-06,5.69805112e-06,9.63798741e-06,1.66672249e-05,3.23617147e-05
2.75,9.42462484e-07,3.03418315e-06,5.56174508e-06,9.31144015e-06,1.58531473e-05,2.99717241e-05
2.8,9.37573701e-07,2.98860942e-06,5.43322781e-06,9.00864854e-06,1.51178759e-05,2.78814025e-05
2.85,9.32876736e-07,2.94509523e-06,5.31185349e-06,8.72713155e-06,1.44507717e-05,2.60468484e-05
2.9,9.28361146e-07,2.90350524e-06,5.19704559e-06,8.4647394e-06,1.38429737e-05,2.44295577e-05
2.95,9.24017218e-07,2.8637157e-06,5.08828784e-06,8.21960056e-06,1.32870554e-05,2.29967515e-05
3.0,9.19835916e-07,2.82561325e-06,4.98511655e-06,7.99007844e-06,1.27767544e-05,2.17209458e-05
3.05,9.15808815e-07,2.78909378e-06,4.88711414e-06,7.77473592e-06,1.23067588e-05,2.05792534e-05
3.1,9.11928056e-07,2.7540616e-06,4.79390352e-06,7.572306e-06,1.18725373e-05,1.95526495e-05
3.15,9.08186295e-07,2.72042852e-06,4.70514334e-06,7.38166754e-06,1.14702035e-05,1.8625301e-05
3.2,9.04576668e-07,2.68811319e-06,4.62052382e-06,7.20182493e-06,1.10964071e-05,1.77839921e-05
3.25,9.01092745e-07,2.65704044e-06,4.53976325e-06,7.03189109e-06,1.07482459e-05,1.70176464e-05
3.3,8.97728502e-07,2.62714067e-06,4.46260482e-06,6.87107315e-06,1.04231943e-05,1.63169381e-05
3.35,8.94478289e-07,2.59834939e-06,4.388814e-06,6.71866031e-06,1.01190447e-05,1.56739763e-05
3.4,8.91336799e-07,2.57060673e-06,4.3181761e-06,6.57401353e-06,9.83385977e-06,1.50820509e-05
3.45,8.88299044e-07,2.54385704e-06,4.25049431e-06,6.43655673e-06,9.56593233e-06,1.45354275e-05
3.5,8.85360332e-07,2.51804853e-06,4.18558779e-06,6.30576925e-06,9.31375281e-06,1.40291815e-05
3.55,8.82516245e-07,2.49313295e-06,4.12329016e-06,6.18117934e-06,9.07598152e-06,1.35590637e-05
3.6,8.7976262e-07,2.46906527e-06,4.06344803e-06,6.0623586e-06,8.85142557e-06,1.31213911e-05
3.65,8.77095529e-07,2.44580343e-06,4.00591978e-06,5.94891713e-06,8.63901949e-06,1.27129574e-05
3.7,8.74511265e-07,2.4233081e-06,3.95057448e-06,5.84049926e-06,8.43780873e-06,1.23309596e-05
3.75,8.72006327e-07,2.40154247e-06,3.89729084e-06,5.73677994e-06,8.24693568e-06,1.19729377e-05
3.8,8.69577404e-07,2.38047203e-06,3.8459564e-06,5.63746149e-06,8.06562773e-06,1.16367243e-05
3.85,8.67221362e-07,2.3600644e-06,3.7964667e-06,5.5422708e-06,7.89318706e-06,1.13204029e-05
3.9,8.64935236e-07,2.3402892e-06,3.74872461e-06,5.45095684e-06,7.72898182e-06,1.10222734e-05
3.95,8.62716216e-07,2.32111785e-06,3.70263969e-06,5.36328848e-06,7.57243856e-06,1.07408222e-05
4.0,8.60561637e-07,2.30252346e-06,3.65812762e-06,5.27905259e-06,7.42303568e-06,1.04746978e-05
4.05,8.58468971e-07,2.28448071e-06,3.61510968e-06,5.19805226e-06,7.2802977e-06,1.02226899e-05
4.1,8.56435818e-07,2.26696576e-06,3.57351233e-06,5.12010535e-06,7.14379029e-06,9.98371154e-06
4.15,8.54459897e-07,2.24995608e-06,3.53326675e-06,5.04504311e-06,7.01311594e-06,9.7567838e-06
4.2,8.52539041e-07,2.23343042e-06,3.4943085e-06,4.97270897e-06,6.88791013e-06,9.5410229e-06
4.25,8.50671188e-07,2.21736871e-06,3.45657715e-06,4.90295747e-06,6.76783803e-06,9.33562893e-06
4.3,8.48854375e-07,2.20175194e-06,3.42001599e-06,4.83565328e-06,6.65259151e-06,9.13987621e-06
4.35,8.47086734e-07,2.18656216e-06,3.38457176e-06,4.77067036e-06,6.54188652e-06,8.95310492e-06
4.4,8.45366484e-07,2.17178234e-06,3.35019436e-06,4.70789115e-06,6.43546086e-06,8.77471384e-06
4.45,8.43691928e-07,2.15739635e-06,3.31683663e-06,4.64720588e-06,6.33307205e-06,8.60415401e-06
4.5,8.42061447e-07,2.1433889e-06,3.28445418e-06,4.58851195e-06,6.23449556e-06,8.44092318e-06
4.55,8.40473494e-07,2.12974545e-06,3.25300511e-06,4.53171334e-06,6.13952315e-06,8.284561e-06
4.6,8.38926594e-07,2.11645223e-06,3.22244991e-06,4.47672008e-06,6.04796146e-06,8.13464474e-06
4.65,8.37419338e-07,2.10349613e-06,3.19275126e-06,4.42344781e-06,5.95963068e-06,7.99078554e-06
4.7,8.35950378e-07,2.09086469e-06,3.16387387e-06,4.37181733e-06,5.87436339e-06,7.85262508e-06
4.75,8.34518426e-07,2.07854605e-06,3.13578437e-06,4.32175422e-06,5.79200351e-06,7.7198327e-06
4.8,8.33122248e-07,2.06652892e-06,3.10845118e-06,4.27318849e-06,5.71240537e-06,7.59210271e-06
4.85,8.31760664e-07,2.05480255e-06,3.08184437e-06,4.22605422e-06,5.63543287e-06,7.46915218e-06
4.9,8.30432546e-07,2.04335668e-06,3.05593555e-06,4.18028934e-06,5.56095865e-06,7.35071877e-06
4.95,8.29136809e-07,2.03218154e-06,3.03069781e-06,4.13583528e-06,5.48886347e-06,7.23655898e-06
5.0,8.27872417e-07,2.0212678e-06,3.00610561e-06,4.09263676e-06,5.41903555e-06,7.12644644e-06
5.05,8.26638375e-07,2.01060656e-06,2.98213466e-06,4.05064158e-06,5.35136995e-06,7.02017044e-06
5.1,8.25433728e-07,2.00018929e-06,2.95876189e-06,4.00980036e-06,5.28576815e-06,6.91753462e-06
5.15,8.2425756e-07,1.99000787e-06,2.93596534e-06,3.9700664e-06,5.22213748e-06,6.81835578e-06
5.2,8.23108993e-07,1.98005452e-06,2.91372413e-06,3.93139548e-06,5.16039072e-06,6.72246274e-06
5.25,8.21987182e-07,1.97032181e-06,2.89201836e-06,3.8937457e-06,5.10044575e-06,6.62969546e-06
5.3,8.20891317e-07,1.9608026e-06,2.87082907e-06,3.85707732e-06,5.04222511e-06,6.53990407e-06
5.35,8.19820616e-07,1.95149007e-06,2.85013819e-06,3.82135265e-06,4.98565572e-06,6.45294812e-06
5.4,8.18774331e-07,1.9423777e-06,2.82992846e-06,3.78653588e-06,4.93066856e-06,6.36869585e-06
5.45,8.17751741e-07,1.93345922e-06,2.81018344e-06,3.752593e-06,4.87719843e-06,6.28702351e-06
5.5,8.16752151e-07,1.92472863e-06,2.7908874e-06,3.71949168e-06,4.82518361e-06,6.20781479e-06
5.55,8.15774895e-07,1.91618015e-06,2.77202533e-06,3.68720114e-06,4.7745657e-06,6.13096023e-06
5.6,8.1481933e-07,1.90780828e-06,2.75358285e-06,3.65569212e-06,4.72528939e-06,6.05635677e-06
5.65,8.13884835e-07,1.89960768e-06,2.73554625e-06,3.6249367e-06,4.67730222e-06,5.98390726e-06
5.7,8.12970816e-07,1.89157327e-06,2.71790238e-06,3.59490831e-06,4.63055446e-06,5.91352005e-06
5.75,8.12076696e-07,1.88370015e-06,2.70063865e-06,3.56558159e-06,4.58499886e-06,5.84510861e-06
5.8,8.11201922e-07,1.8759836e-06,2.68374301e-06,3.53693235e-06,4.54059058e-06,5.77859116e-06
5.85,8.10345959e-07,1.86841909e-06,2.66720391e-06,3.50893752e-06,4.49728696e-06,5.71389038e-06
5.9,8.09508291e-07,1.86100227e-06,2.65101029e-06,3.48157502e-06,4.45504746e-06,5.65093311e-06
5.95,8.08688421e-07,1.85372895e-06,2.63515153e-06,3.45482379e-06,4.41383346e-06,5.58965002e-06
6.0,8.07885869e-07,1.84659508e-06,2.61961742e-06,3.42866367e-06,4.37360821e-06,5.52997543e-06
6.05,8.0710017e-07,1.83959678e-06,2.6043982e-06,3.40307538e-06,4.33433669e-06,5.47184703e-06
6.1,8.06330877e-07,1.8327303e-06,2.58948446e-06,3.37804048e-06,4.29598551e-06,5.41520571e-06
6.15,8.05577558e-07,1.82599204e-06,2.57486719e-06,3.3535413e-06,4.2585228e-06,5.35999529e-06
6.2,8.04839794e-07,1.81937851e-06,2.5605377e-06,3.32956092e-06,4.22191818e-06,5.30616241e-06
6.25,8.0411718e-07,1.81288636e-06,2.54648767e-06,3.30608311e-06,4.18614259e-06,5.25365632e-06
6.3,8.03409328e-07,1.80651235e-06,2.53270907e-06,3.28309233e-06,4.15116831e-06,5.20242872e-06
6.35,8.02715857e-07,1.80025336e-06,2.51919418e-06,3.26057365e-06,4.11696881e-06,5.15243363e-06
6.4,8.02036403e-07,1.79410637e-06,2.50593557e-06,3.23851277e-06,4.08351873e-06,5.10362724e-06
6.45,8.01370613e-07,1.78806847e-06,2.49292609e-06,3.21689594e-06,4.05079381e-06,5.0559678e-06
6.5,8.00718143e-07,1.78213685e-06,2.48015885e-06,3.19570996e-06,4.0187708e-06,5.00941547e-06
6.55,8.00078662e-07,1.77630879e-06,2.46762721e-06,3.17494215e-06,3.98742745e-06,4.96393226e-06
6.6,7.9945185e-07,1.77058166e-06,2.45532477e-06,3.15458032e-06,3.95674245e-06,4.91948187e-06
