vds,vb1,vb2,vb3,vb4,vb5,vb6
0.0,3.08938581e-05,9.49593891e-05,0.000147980443,0.0001898871,0.000221410475,0.000243929187
0.05,2.66177755e-05,9.04634788e-05,0.000143689328,0.000185911094,0.00021779812,0.000240693082
0.1,2.23720313e-05,8.59920331e-05,0.000139420829,0.000181954763,0.00021420224,0.000237470436
0.15,1.81657567e-05,8.15449178e-05,0.000135174788,0.000178017976,0.000210622735,0.000234261174
0.2,1.40223361e-05,7.71220132e-05,0.000130951049,0.000174100605,0.000207059505,0.000231065223
0.25,1.00070066e-05,7.27232203e-05,0.000126749459,0.000170202522,0.000203512452,0.000227882509
0.3,6.30523143e-06,6.83484681e-05,0.000122569866,0.000166323599,0.000199981477,0.000224712957
0.35,3.34030178e-06,6.39977269e-05,0.000118412117,0.00016246371,0.000196466483,0.000221556496
0.4,1.54386234e-06,5.96710277e-05,0.000114276065,0.00015862273,0.000192967373,0.000218413054
0.45,7.31932063e-07,5.53684938e-05,0.000110161563,0.000154800535,0.00018948405,0.000215282558
0.5,4.01985469e-07,5.1090393e-05,0.000106068464,0.000150997,0.000186016418,0.000212164937
0.55,2.58928144e-07,4.68372271e-05,0.000101996625,0.000147212003,0.000182564384,0.00020906012
0.6,1.89015005e-07,4.26098879e-05,9.79459062e-05,0.000143445423,0.000179127852,0.000205968036
0.65,1.50685565e-07,3.84099406e-05,9.39161691e-05,0.000139697136,0.000175706728,0.000202888616
0.7,1.27566205e-07,3.42401568e-05,8.99072787e-05,0.000135967024,0.00017230092,0.00019982179
0.75,1.12516626e-07,3.01055472e-05,8.5919104e-05,0.000132254964,0.000168910335,0.00019676749
0.8,1.02109683e-07,2.60154227e-05,8.19515191e-05,0.000128560839,0.000165534881,0.000193725645
0.85,9.45580504e-08,2.19875622e-05,7.80044048e-05,0.000124884527,0.000162174465,0.000190696188
0.9,8.88618444e-08,1.80564825e-05,7.40776509e-05,0.00012122591,0.000158828998,0.00018767905
0.95,8.44276532e-08,1.42883677e-05,7.017116e-05,0.000117584869,0.000155498387,0.000184674165
1.0,8.08852647e-08,1.08011095e-05,6.62848535e-05,0.000113961284,0.000152182543,0.000181681465
1.05,7.7993694e-08,7.768878e-06,6.24186806e-05,0.000110355037,0.000148881376,0.000178700884
1.1,7.55902623e-08,5.36548281e-06,5.8572634e-05,0.000106766006,0.000145594795,0.000175732354
1.15,7.35616509e-08,3.65068159e-06,5.47467742e-05,0.000103194072,0.000142322712,0.00017277581
1.2,7.18267417e-08,2.52564815e-06,5.0941272e-05,9.96391112e-05,0.000139065037,0.000169831185
1.25,7.03260665e-08,1.81648479e-06,4.71564806e-05,9.61010007e-05,0.00013582168,0.000166898415
1.3,6.90151048e-08,1.36898937e-06,4.33930629e-05,9.25796143e-05,0.000132592553,0.000163977434
1.35,6.78599021e-08,1.0791491e-06,3.9652219e-05,8.90748229e-05,0.000129377566,0.000161068177
1.4,6.68341318e-08,8.84440434e-07,3.59361017e-05,8.55864938e-05,0.000126176629,0.000158170579
1.45,6.59170781e-08,7.48541623e-07,3.22485831e-05,8.21144895e-05,0.000122989652,0.000155284576
1.5,6.50922231e-08,6.50224477e-07,2.85966759e-05,7.86586667e-05,0.000119816544,0.000152410104
1.55,6.43462379e-08,5.76778461e-07,2.49931308e-05,7.52188749e-05,0.000116657214,0.000149547098
1.6,6.36682497e-08,5.20352946e-07,2.14609554e-05,7.17949546e-05,0.000113511569,0.000146695494
1.65,6.30493022e-08,4.75939096e-07,1.80404168e-05,6.8386736e-05,0.000110379515,0.000143855228
1.7,6.2481951e-08,4.40239556e-07,1.47972186e-05,6.49940374e-05,0.000107260956,0.000141026236
1.75,6.19599575e-08,4.1101952e-07,1.18252803e-05,6.16166643e-05,0.000104155794,0.000138208454
1.8,6.14780541e-08,3.86723528e-07,9.23153628e-06,5.82544101e-05,0.000101063928,0.000135401817
1.85,6.10317621e-08,3.66242578e-07,7.09750735e-06,5.49070598e-05,9.79852545e-05,0.000132606262
1.9,6.0617249e-08,3.48768641e-07,5.44059026e-06,5.15744015e-05,9.49196636e-05,0.000129821724
1.95,6.02312161e-08,3.33701351e-07,4.21012464e-06,4.82562505e-05,9.18670417e-05,0.000127048137
2.0,5.98708081e-08,3.20586707e-07,3.31851818e-06,4.4952501e-05,8.88272684e-05,0.000124285437
2.05,5.95335408e-08,3.09075876e-07,2.67613688e-06,4.16632286e-05,8.58002149e-05,0.000121533556
2.1,5.92172431e-08,2.98896945e-07,2.20968704e-06,3.83888903e-05,8.27857424e-05,0.000118792427
2.15,5.89200083e-08,2.89835165e-07,1.86564093e-06,3.5130706e-05,7.97836999e-05,0.000116061984
2.2,5.86401554e-08,2.81718903e-07,1.60695308e-06,3.18913728e-05,7.67939208e-05,0.000113342156
2.25,5.83761964e-08,2.74409489e-07,1.40849552e-06,2.86763615e-05,7.38162199e-05,0.000110632873
2.3,5.81268091e-08,2.67793763e-07,1.25324378e-06,2.54961574e-05,7.08503881e-05,0.000107934062
2.35,5.78908149e-08,2.61778536e-07,1.12955812e-06,2.23697999e-05,6.78961876e-05,0.000105245649
2.4,5.76671596e-08,2.5628642e-07,1.02936554e-06,1.93296084e-05,6.49533447e-05,0.000102567556
2.45,5.74548971e-08,2.51252646e-07,9.4697285e-07,1.64254541e-05,6.20215417e-05,9.9899703e-05
2.5,5.72531764e-08,2.4662262e-07,8.78295019e-07,1.37243356e-05,5.91004072e-05,9.72420051e-05
2.55,5.70612293e-08,2.42350013e-07,8.20350386e-07,1.12998565e-05,5.61895055e-05,9.45943737e-05
2.6,5.68783609e-08,2.38395272e-07,7.70926674e-07,9.2114704e-06,5.32883253e-05,9.19567144e-05
2.65,5.6703941e-08,2.3472443e-07,7.28356892e-07,7.48416989e-06,5.03962701e-05,8.93289261e-05
2.7,5.65373964e-08,2.31308163e-07,6.91366658e-07,6.10263415e-06,4.75126551e-05,8.67108995e-05
2.75,5.63782052e-08,2.28121026e-07,6.5896857e-07,5.02220406e-06,4.4636719e-05,8.41025158e-05
2.8,5.62258904e-08,2.25140837e-07,6.30388015e-07,4.1864156e-06,4.17676687e-05,8.15036443e-05
2.85,5.60800159e-08,2.22348174e-07,6.0501028e-07,3.54070133e-06,3.89047907e-05,7.89141398e-05
2.9,5.59401815e-08,2.19725958e-07,5.82342334e-07,3.03907479e-06,3.60476876e-05,7.63338397e-05
2.95,5.58060199e-08,2.17259115e-07,5.61984829e-07,2.64558743e-06,3.3196745e-05,7.37625599e-05
3.0,5.56771928e-08,2.14934291e-07,5.43611338e-07,2.33323761e-06,3.03539916e-05,7.12000901e-05
3.05,5.55533887e-08,2.12739612e-07,5.26952775e-07,2.08211868e-06,2.752458e-05,6.86461879e-05
3.1,5.54343196e-08,2.10664488e-07,5.11785577e-07,1.87763808e-06,2.47191105e-05,6.61005714e-05
3.15,5.53197195e-08,2.08699444e-07,4.9792264e-07,1.70907615e-06,2.19567853e-05,6.35629102e-05
3.2,5.52093418e-08,2.06835977e-07,4.85206311e-07,1.56850539e-06,1.92686679e-05,6.1032814e-05
3.25,5.51029578e-08,2.05066434e-07,4.735029e-07,1.4500087e-06,1.66990786e-05,5.85098196e-05
3.3,5.50003552e-08,2.03383912e-07,4.62698368e-07,1.3491227e-06,1.43022009e-05,5.59933743e-05
3.35,5.49013363e-08,2.01782166e-07,4.52694901e-07,1.26244302e-06,1.21322319e-05,5.34828168e-05
3.4,5.48057171e-08,2.00255531e-07,4.43408156e-07,1.18734406e-06,1.02298088e-05,5.09773566e-05
3.45,5.4713326e-08,1.98798861e-07,4.34765058e-07,1.1217786e-06,8.61161268e-06,4.84760515e-05
3.5,5.46240029e-08,1.97407467e-07,4.26701998e-07,1.06413363e-06,7.26874594e-06,4.59777897e-05
3.55,5.45375979e-08,1.9607707e-07,4.1916337e-07,1.01312548e-06,6.17332644e-06,4.34812814e-05
3.6,5.44539709e-08,1.94803755e-07,4.12100364e-07,9.67722817e-07,5.28819757e-06,4.09850784e-05
3.65,5.43729906e-08,1.93583936e-07,4.05469971e-07,9.27089681e-07,4.57507579e-06,3.84876469e-05
3.7,5.42945338e-08,1.9241432e-07,3.99234155e-07,8.90542714e-07,3.99936441e-06,3.59875444e-05
3.75,5.42184849e-08,1.91291877e-07,3.9335916e-07,8.57518895e-07,3.53206468e-06,3.34837801e-05
3.8,5.41447354e-08,1.90213818e-07,3.87814935e-07,8.27550897e-07,3.14991182e-06,3.09764797e-05
3.85,5.40731828e-08,1.89177568e-07,3.8257464e-07,8.0024812e-07,2.83469194e-06,2.84680083e-05
3.9,5.40037311e-08,1.88180746e-07,3.77614233e-07,7.75281953e-07,2.57231727e-06,2.596469e-05
3.95,5.39362896e-08,1.87221152e-07,3.72912118e-07,7.52374236e-07,2.35193723e-06,2.34791033e-05
4.0,5.38707728e-08,1.86296741e-07,3.68448847e-07,7.31288154e-07,2.16518753e-06,2.10325134e-05
4.05,5.38070998e-08,1.85405619e-07,3.64206856e-07,7.11820996e-07,2.00559438e-06,1.86563223e-05
4.1,5.37451944e-08,1.84546025e-07,3.60170251e-07,6.93798352e-07,1.86811721e-06,1.6390854e-05
4.15,5.36849845e-08,1.83716318e-07,3.56324608e-07,6.7706944e-07,1.74880334e-06,1.42802045e-05
4.2,5.36264019e-08,1.8291497e-07,3.52656814e-07,6.61503309e-07,1.64452921e-06,1.23638599e-05
4.25,5.35693818e-08,1.82140556e-07,3.49154921e-07,6.46985744e-07,1.5528068e-06,1.06682866e-05
4.3,5.35138631e-08,1.81391742e-07,3.4580802e-07,6.33416716e-07,1.47163849e-06,9.20232491e-06
4.35,5.34597876e-08,1.80667285e-07,3.42606129e-07,6.20708291e-07,1.39940781e-06,7.95799303e-06
4.4,5.34071002e-08,1.79966017e-07,3.39540101e-07,6.08782876e-07,1.33479679e-06,6.91524627e-06
4.45,5.33557485e-08,1.79286845e-07,3.36601536e-07,5.97571773e-07,1.27672293e-06,6.04787161e-06
4.5,5.33056828e-08,1.78628744e-07,3.3378271e-07,5.87013953e-07,1.22429091e-06,5.32836872e-06
4.55,5.32568557e-08,1.77990752e-07,3.31076505e-07,5.77055035e-07,1.17675532e-06,4.73103507e-06
4.6,5.32092222e-08,1.77371962e-07,3.28476352e-07,5.67646416e-07,1.13349156e-06,4.23343816e-06
4.65,5.31627395e-08,1.76771523e-07,3.25976183e-07,5.5874453e-07,1.09397313e-06,3.81680212e-06
4.7,5.31173667e-08,1.76188633e-07,3.23570379e-07,5.50310228e-07,1.05775369e-06,3.46580363e-06
4.75,5.30730649e-08,1.75622535e-07,3.21253733e-07,5.42308232e-07,1.02445282e-06,3.16811584e-06
4.8,5.30297969e-08,1.75072517e-07,3.19021413e-07,5.34706677e-07,9.93744587e-07,2.91389342e-06
4.85,5.29875273e-08,1.74537904e-07,3.16868925e-07,5.27476713e-07,9.65348402e-07,2.69529148e-06
4.9,5.29462223e-08,1.74018061e-07,3.1479209e-07,5.20592162e-07,9.39021603e-07,2.50605362e-06
4.95,5.29058495e-08,1.73512385e-07,3.12787013e-07,5.14029214e-07,9.14553403e-07,2.34117528e-06
5.0,5.28663781e-08,1.73020306e-07,3.10850062e-07,5.07766175e-07,8.91759948e-07,2.19663567e-06
5.05,5.28277784e-08,1.72541286e-07,3.08977843e-07,5.01783234e-07,8.7048024e-07,2.06918742e-06
5.1,5.27900222e-08,1.72074812e-07,3.07167183e-07,4.96062268e-07,8.50572774e-07,1.95619276e-06
5.15,5.27530825e-08,1.71620399e-07,3.05415113e-07,4.90586666e-07,8.31912732e-07,1.85549613e-06
5.2,5.27169333e-08,1.71177588e-07,3.03718851e-07,4.85341178e-07,8.14389641e-07,1.76532539e-06
5.25,5.26815498e-08,1.7074594e-07,3.02075786e-07,4.80311779e-07,7.97905414e-07,1.68421471e-06
5.3,5.26469081e-08,1.7032504e-07,3.0048347e-07,4.75485548e-07,7.82372689e-07,1.61094447e-06
5.35,5.26129855e-08,1.69914494e-07,2.98939598e-07,4.70850565e-07,7.67713433e-07,1.54449399e-06
5.4,5.25797601e-08,1.69513924e-07,2.97442006e-07,4.66395814e-07,7.53857746e-07,1.48400432e-06
5.45,5.25472108e-08,1.69122973e-07,2.95988653e-07,4.62111102e-07,7.40742851e-07,1.42874868e-06
5.5,5.25153174e-08,1.68741299e-07,2.94577619e-07,4.57986983e-07,7.28312218e-07,1.378109e-06
5.55,5.24840605e-08,1.68368578e-07,2.9320709e-07,4.54014692e-07,7.16514825e-07,1.33155701e-06
5.6,5.24534215e-08,1.68004498e-07,2.91875357e-07,4.50186085e-07,7.05304509e-07,1.28863905e-06
5.65,5.24233825e-08,1.67648764e-07,2.90580803e-07,4.46493584e-07,6.94639409e-07,1.24896382e-06
5.7,5.23939262e-08,1.67301093e-07,2.893219e-07,4.42930131e-07,6.84481488e-07,1.2121923e-06
5.75,5.23650361e-08,1.66961215e-07,2.88097203e-07,4.39489144e-07,6.74796108e-07,1.1780296e-06
5.8,5.23366962e-08,1.66628872e-07,2.86905343e-07,4.36164477e-07,6.65551665e-07,1.14621816e-06
5.85,5.23088911e-08,1.66303817e-07,2.85745023e-07,4.32950385e-07,6.56719269e-07,1.11653222e-06
5.9,5.2281606e-08,1.65985813e-07,2.84615013e-07,4.29841493e-07,6.48272463e-07,1.0887732e-06
5.95,5.22548267e-08,1.65674635e-07,2.83514147e-07,4.26832766e-07,6.40186973e-07,1.06276578e-06
6.0,5.22285394e-08,1.65370065e-07,2.82441316e-07,4.23919482e-07,6.32440494e-07,1.0383547e-06
6.05,5.22027308e-08,1.65071897e-07,2.81395468e-07,4.21097212e-07,6.25012493e-07,1.01540207e-06
6.1,5.21773883e-08,1.64779931e-07,2.80375603e-07,4.1836179e-07,6.17884041e-07,9.93784984e-07
6.15,5.21524994e-08,1.64493976e-07,2.79380768e-07,4.15709304e-07,6.11037659e-07,9.73393666e-07
6.2,5.21280522e-08,1.6421385e-07,2.78410058e-07,4.13136067e-07,6.04457186e-07,9.54129743e-07
6.25,5.21040353e-08,1.63939377e-07,2.77462608e-07,4.10638611e-07,5.98127656e-07,9.35904852e-07
6.3,5.20804376e-08,1.63670388e-07,2.76537597e-07,4.08213661e-07,5.92035192e-07,9.18639422e-07
6.35,5.20572483e-08,1.6340672e-07,2.7563424e-07,4.05858131e-07,5.86166909e-07,9.02261628e-07
6.4,5.20344571e-08,1.63148219e-07,2.74751789e-07,4.03569104e-07,5.80510831e-07,8.86706486e-07
6.45,5.2012054e-08,1.62894734e-07,2.7388953e-07,4.01343824e-07,5.75055806e-07,8.71915072e-07
6.5,5.19900293e-08,1.62646121e-07,2.7304678e-07,3.99179685e-07,5.69791444e-07,8.57833848e-07
6.55,5.19683736e-08,1.62402243e-07,2.72222888e-07,3.97074219e-07,5.64708052e-07,8.44414066e-07
6.6,5.19470779e-08,1.62162965e-07,2.7141723e-07,3.9502509e-07,5.59796573e-07,8.31611256e-07
