vds,vb1,vb2,vb3,vb4,vb5,vb6
0.0,0.000625126132,0.00187736005,0.00280254743,0.00346917391,0.00392018727,0.00420103195
0.05,0.000509407393,0.00173936773,0.00265697464,0.0033252146,0.00378407645,0.00407613863
0.1,0.000398273273,0.00160609357,0.00251615403,0.00318557861,0.00365165403,0.00395426916
0.15,0.000292822207,0.00147733469,0.00237988187,0.00305009458,0.0035227879,0.00383532666
0.2,0.000196901903,0.00135290317,0.00224796477,0.00291859909,0.00339735152,0.00371921796
0.25,0.000121132267,0.00123262804,0.00212021904,0.00279093597,0.00327522343,0.00360585332
0.3,7.7356366e-05,0.00111635921,0.00199647031,0.00266695585,0.00315628698,0.00349514613
0.35,5.80982426e-05,0.00100397517,0.0018765534,0.0025465159,0.00304042996,0.00338701283
0.4,4.90068362e-05,0.000895397757,0.0017603124,0.00242947964,0.0029275445,0.00328137266
0.45,4.36390254e-05,0.000790622361,0.00164760072,0.0023157169,0.00281752698,0.00317814764
0.5,3.99263857e-05,0.000689782042,0.00153828116,0.00220510374,0.00271027792,0.00307726248
0.55,3.7127065e-05,0.000593285915,0.00143222579,0.00209752239,0.00260570201,0.00297864457
0.6,3.49110547e-05,0.000502102203,0.00132931595,0.0019928611,0.00250370802,0.00288222391
0.65,3.31021447e-05,0.000418210724,0.00122944207,0.00189101381,0.0024042088,0.00278793313
0.7,3.15935259e-05,0.000344791031,0.00113250359,0.00179187982,0.00230712116,0.00269570746
0.75,3.03147907e-05,0.000284910452,0.00103840904,0.00169536318,0.00221236574,0.00260548472
0.8,2.92168227e-05,0.000239036533,0.000947076764,0.00160137181,0.00211986687,0.00251720524
0.85,2.82639558e-05,0.000204803661,0.000858438275,0.00150981633,0.00202955227,0.00243081183
0.9,2.7429504e-05,0.000179080736,0.000772452902,0.00142060818,0.00194135278,0.0023462497
0.95,2.66930272e-05,0.000159329359,0.000689163169,0.00133365667,0.0018552019,0.00226346635
1.0,2.6038568e-05,0.00014379062,0.000608868015,0.00124886431,0.00177103527,0.00218241146
1.05,2.54534692e-05,0.000131289141,0.000532501403,0.00116611898,0.00168878986,0.00210303672
1.1,2.49275531e-05,0.000121033205,0.00046198466,0.00108528112,0.00160840296,0.00202529565
1.15,2.44525378e-05,0.000112477661,0.000399736436,0.00100616395,0.00152981055,0.00194914337
1.2,2.40216134e-05,0.000105237654,0.000347260429,0.00092850816,0.00145294503,0.00187453632
1.25,2.36291276e-05,9.90348711e-05,0.000304378332,0.000851967843,0.00137773147,0.00180143183
1.3,2.32703492e-05,9.36635659e-05,0.00026976192,0.00077616954,0.00130408189,0.0017297877
1.35,2.29412876e-05,8.89685978e-05,0.00024177528,0.000700976088,0.001231886,0.00165956146
1.4,2.26385534e-05,8.48309019e-05,0.000218947214,0.00062703553,0.00116099665,0.00159070944
1.45,2.23592493e-05,8.1157648e-05,0.00020010517,0.000556232985,0.00109120798,0.00152318537
1.5,2.21008842e-05,7.78754325e-05,0.000184358077,0.000491217616,0.00102222626,0.00145693829
1.55,2.18613044e-05,7.49254733e-05,0.000171038669,0.000434075852,0.000953643126,0.00139190939
1.6,2.16386388e-05,7.22601567e-05,0.000159646905,0.000385471185,0.000884947714,0.00132802715
1.65,2.14312536e-05,6.98405153e-05,0.000149805087,0.000344846843,0.000815663798,0.00126519981
1.7,2.12377166e-05,6.76343569e-05,0.000141224752,0.000311066159,0.000745717117,0.00120330389
1.75,2.10567667e-05,6.56148579e-05,0.000133682903,0.00028289996,0.000675959575,0.00114216726
1.8,2.08872895e-05,6.37594918e-05,0.000127005028,0.000259253414,0.000608364575,0.00108154599
1.85,2.07282964e-05,6.20492044e-05,0.000121052936,0.000239228365,0.000545401015,0.00102109885
1.9,2.05789077e-05,6.04677708e-05,0.000115715971,0.000222113897,0.00048897239,0.000960375306
1.95,2.04383377e-05,5.90012907e-05,0.000110904591,0.000207354744,0.000439839431,0.000898859242
2.0,2.03058831e-05,5.76377871e-05,0.000106545634,0.000194518022,0.000397770482,0.0008361404
2.05,2.01809119e-05,5.63668855e-05,0.000102578786,0.000183264882,0.00036199148,0.000772258033
2.1,2.00628551e-05,5.51795552e-05,9.89539006e-05,0.000173328213,0.000331560643,0.000708080807
2.15,1.9951199e-05,5.40678989e-05,9.56289697e-05,0.000164495668,0.000305574259,0.000645348575
2.2,1.98454785e-05,5.30249807e-05,9.2568546e-05,0.000156596923,0.000283247889,0.000586141044
2.25,1.97452717e-05,5.20446843e-05,8.97425209e-05,0.00014949413,0.000263932062,0.000532116121
2.3,1.9650195e-05,5.11215958e-05,8.71251617e-05,0.000143074745,0.000247100642,0.000484087793
2.35,1.95598989e-05,5.02509056e-05,8.46943493e-05,0.000137246116,0.000232330949,0.000442086576
2.4,1.94740642e-05,4.94283269e-05,8.24309687e-05,0.00013193136,0.000219283769,0.0004056522
2.45,1.93923989e-05,4.86500264e-05,8.03184178e-05,0.000127066201,0.000207686035,0.000374112804
2.5,1.93146355e-05,4.79125658e-05,7.834221e-05,0.000122596528,0.000197316772,0.000346763167
2.55,1.92405283e-05,4.72128529e-05,7.64896482e-05,0.000118476487,0.000187996014,0.000322952598
2.6,1.91698513e-05,4.65480986e-05,7.47495586e-05,0.000114666982,0.00017957618,0.000302116881
2.65,1.91023963e-05,4.59157811e-05,7.31120692e-05,0.000111134486,0.00017193539,0.000283781894
2.7,1.90379713e-05,4.53136144e-05,7.15684261e-05,0.000107850093,0.000164972286,0.000267555238
2.75,1.89763989e-05,4.47395216e-05,7.01108405e-05,0.000104788756,0.000158602009,0.000253114138
2.8,1.89175147e-05,4.41916115e-05,6.87323594e-05,0.000101928666,0.000152753051,0.000240193327
2.85,1.88611667e-05,4.36681585e-05,6.74267566e-05,9.92507514e-05,0.000147364782,0.000228574335
2.9,1.88072135e-05,4.31675846e-05,6.61884406e-05,9.67382621e-05,0.00014238549,0.00021807652
2.95,1.8755524e-05,4.26884441e-05,6.50123758e-05,9.43764301e-05,0.000137770832,0.00020854979
3.0,1.87059761e-05,4.22294103e-05,6.38940154e-05,9.21521856e-05,0.000133482578,0.00019986876
3.05,1.8658456e-05,4.17892631e-05,6.28292435e-05,9.0053921e-05,0.00012948761,0.000191928096
3.1,1.86128578e-05,4.13668787e-05,6.18143253e-05,8.8071293e-05,0.0001257571,0.000184638809
3.15,1.85690824e-05,4.09612206e-05,6.08458643e-05,8.61950556e-05,0.00012226585,0.000177925306
3.2,1.85270374e-05,4.05713308e-05,5.99207647e-05,8.44169191e-05,0.000118991737,0.000171723025
3.25,1.84866361e-05,4.01963227e-05,5.90361991e-05,8.27294298e-05,0.000115915267,0.000165976541
3.3,1.84477975e-05,3.98353749e-05,5.81895799e-05,8.1125868e-05,0.000113019195,0.000160638039
3.35,1.84104455e-05,3.94877248e-05,5.73785345e-05,7.96001595e-05,0.000110288213,0.000155666074
3.4,1.8374509e-05,3.91526639e-05,5.66008837e-05,7.81468006e-05,0.000107708687,0.000151024561
3.45,1.83399208e-05,3.88295327e-05,5.5854622e-05,7.67607928e-05,0.000105268439,0.000146681947
3.5,1.83066181e-05,3.8517717e-05,5.5137901e-05,7.54375862e-05,0.000102956552,0.000142610532
3.55,1.82745415e-05,3.82166435e-05,5.44490142e-05,7.41730303e-05,0.000100763217,0.000138785904
3.6,1.82436353e-05,3.79257771e-05,5.37863837e-05,7.29633317e-05,9.86795959e-05,0.000135186469
3.65,1.82138468e-05,3.76446173e-05,5.31485483e-05,7.18050158e-05,9.66977032e-05,0.000131793062
3.7,1.81851265e-05,3.73726957e-05,5.2534153e-05,7.06948951e-05,9.48103069e-05,0.000128588617
3.75,1.81574275e-05,3.71095733e-05,5.19419394e-05,6.96300391e-05,9.30108421e-05,0.00012555789
3.8,1.81307056e-05,3.68548384e-05,5.13707374e-05,6.86077499e-05,9.12933358e-05,0.00012268722
3.85,1.81049189e-05,3.66081044e-05,5.08194575e-05,6.76255392e-05,8.96523422e-05,0.000119964336
3.9,1.80800279e-05,3.63690079e-05,5.02870841e-05,6.66811083e-05,8.80828859e-05,0.000117378184
3.95,1.80559951e-05,3.61372073e-05,4.97726692e-05,6.57723307e-05,8.65804122e-05,0.000114918777
4.0,1.80327851e-05,3.59123807e-05,4.9275327e-05,6.48972359e-05,8.51407438e-05,0.000112577074
4.05,1.8010364e-05,3.56942247e-05,4.87942287e-05,6.40539958e-05,8.37600425e-05,0.00011034487
4.1,1.79887001e-05,3.54824535e-05,4.83285984e-05,6.32409119e-05,8.24347759e-05,0.000108214702
4.15,1.7967763e-05,3.52767969e-05,4.78777085e-05,6.2456404e-05,8.11616872e-05,0.000106179766
4.2,1.7947524e-05,3.50769997e-05,4.74408763e-05,6.16990002e-05,7.99377692e-05,0.000104233849
4.25,1.79279556e-05,3.48828209e-05,4.70174603e-05,6.09673276e-05,7.87602407e-05,0.000102371264
4.3,1.79090319e-05,3.46940322e-05,4.66068576e-05,6.02601044e-05,7.76265258e-05,0.000100586797
4.35,1.78907281e-05,3.45104174e-05,4.62085005e-05,5.95761323e-05,7.65342355e-05,9.88756578e-05
4.4,1.78730206e-05,3.43317718e-05,4.58218545e-05,5.89142898e-05,7.54811508e-05,9.7233439e-05
4.45,1.7855887e-05,3.41579011e-05,4.54464155e-05,5.82735262e-05,7.44652079e-05,9.56560785e-05
4.5,1.78393059e-05,3.3988621e-05,4.50817078e-05,5.76528563e-05,7.34844853e-05,9.4139826e-05
4.55,1.78232569e-05,3.38237566e-05,4.47272824e-05,5.70513549e-05,7.25371911e-05,9.26812142e-05
4.6,1.78077204e-05,3.36631417e-05,4.43827147e-05,5.6468153e-05,7.1621653e-05,9.12770323e-05
4.65,1.7792678e-05,3.35066179e-05,4.4047603e-05,5.59024329e-05,7.07363079e-05,8.99243031e-05
4.7,1.77781119e-05,3.33540351e-05,4.37215674e-05,5.53534248e-05,6.98796935e-05,8.86202618e-05
4.75,1.7764005e-05,3.320525e-05,4.34042478e-05,5.48204036e-05,6.90504402e-05,8.73623378e-05
4.8,1.77503413e-05,3.30601262e-05,4.30953027e-05,5.43026852e-05,6.82472637e-05,8.61481379e-05
4.85,1.77371052e-05,3.29185338e-05,4.27944084e-05,5.3799624e-05,6.74689591e-05,8.49754311e-05
4.9,1.77242818e-05,3.27803487e-05,4.25012576e-05,5.331061e-05,6.67143939e-05,8.38421354e-05
4.95,1.7711857e-05,3.26454528e-05,4.22155581e-05,5.28350667e-05,6.59825036e-05,8.27463054e-05
5.0,1.76998172e-05,3.25137331e-05,4.19370326e-05,5.23724485e-05,6.52722861e-05,8.16861213e-05
5.05,1.76881494e-05,3.23850819e-05,4.1665417e-05,5.19222388e-05,6.45827973e-05,8.0659879e-05
5.1,1.7676841e-05,3.2259396e-05,4.140046e-05,5.14839483e-05,6.39131472e-05,7.96659812e-05
5.15,1.76658801e-05,3.21365769e-05,4.11419225e-05,5.10571127e-05,6.32624957e-05,7.87029289e-05
5.2,1.76552551e-05,3.20165305e-05,4.08895765e-05,5.06412917e-05,6.26300497e-05,7.77693141e-05
5.25,1.76449552e-05,3.18991665e-05,4.06432047e-05,5.02360671e-05,6.20150591e-05,7.68638132e-05
5.3,1.76349697e-05,3.17843985e-05,4.04025997e-05,4.98410417e-05,6.14168147e-05,7.59851804e-05
5.35,1.76252884e-05,3.16721438e-05,4.01675637e-05,4.94558376e-05,6.08346451e-05,7.51322424e-05
5.4,1.76159017e-05,3.15623232e-05,3.99379077e-05,4.90800956e-05,6.0267914e-05,7.43038931e-05
5.45,1.76068e-05,3.14548606e-05,3.97134512e-05,4.87134736e-05,5.97160185e-05,7.34990886e-05
5.5,1.75979745e-05,3.13496831e-05,3.94940217e-05,4.83556456e-05,5.91783865e-05,7.27168436e-05
5.55,1.75894164e-05,3.12467208e-05,3.9279454e-05,4.80063013e-05,5.86544746e-05,7.19562265e-05
5.6,1.75811173e-05,3.11459065e-05,3.90695902e-05,4.76651445e-05,5.81437671e-05,7.12163563e-05
5.65,1.75730694e-05,3.10471756e-05,3.88642791e-05,4.73318926e-05,5.76457734e-05,7.04963993e-05
5.7,1.75652647e-05,3.09504663e-05,3.8663376e-05,4.70062759e-05,5.71600269e-05,6.97955655e-05
5.75,1.7557696e-05,3.0855719e-05,3.84667421e-05,4.66880369e-05,5.66860838e-05,6.91131063e-05
5.8,1.75503559e-05,3.07628763e-05,3.82742442e-05,4.63769293e-05,5.6223521e-05,6.84483114e-05
5.85,1.75432377e-05,3.06718832e-05,3.8085755e-05,4.60727178e-05,5.57719356e-05,6.78005068e-05
5.9,1.75363346e-05,3.05826867e-05,3.79011519e-05,4.57751772e-05,5.53309435e-05,6.71690521e-05
5.95,1.75296403e-05,3.04952358e-05,3.77203174e-05,4.5484092e-05,5.49001781e-05,6.65533386e-05
6.0,1.75231485e-05,3.04094814e-05,3.75431388e-05,4.51992559e-05,5.44792897e-05,6.59527876e-05
6.05,1.75168533e-05,3.03253761e-05,3.73695077e-05,4.49204712e-05,5.40679441e-05,6.53668481e-05
6.1,1.75107488e-05,3.02428743e-05,3.71993199e-05,4.46475486e-05,5.36658221e-05,6.47949956e-05
6.15,1.75048296e-05,3.0161932e-05,3.70324752e-05,4.43803062e-05,5.32726186e-05,6.42367304e-05
6.2,1.74990903e-05,3.0082507e-05,3.68688773e-05,4.41185701e-05,5.28880417e-05,6.36915759e-05
6.25,1.74935256e-05,3.00045583e-05,3.67084337e-05,4.38621729e-05,5.2511812e-05,6.31590777e-05
6.3,1.74881306e-05,2.99280465e-05,3.6551055e-05,4.36109541e-05,5.21436622e-05,6.2638802e-05
6.35,1.74829003e-05,2.98529335e-05,3.63966554e-05,4.33647597e-05,5.17833361e-05,6.21303347e-05
6.4,1.74778302e-05,2.97791827e-05,3.62451522e-05,4.31234414e-05,5.14305883e-05,6.16332799e-05
6.45,1.74729156e-05,2.97067584e-05,3.60964657e-05,4.2886857e-05,5.10851835e-05,6.11472595e-05
6.5,1.74681522e-05,2.96356264e-05,3.59505192e-05,4.26548694e-05,5.0746896e-05,6.06719116e-05
6.55,1.74635358e-05,2.95657536e-05,3.58072384e-05,4.24273471e-05,5.04155093e-05,6.02068901e-05
6.6,1.74590622e-05,2.9497108e-05,3.56665521e-05,4.22041634e-05,5.00908154e-05,5.97518636e-05
