vds,vb1,vb2,vb3,vb4,vb5,vb6
0.0,3.4986199e-05,0.000139839973,0.00022129981,0.000283072442,0.000327493352,0.000357483548
0.05,2.67407803e-05,0.000130017836,0.00021092413,0.000272705006,0.000317562614,0.000348253535
0.1,1.88082638e-05,0.000120449094,0.000200813148,0.000262586346,0.000307850545,0.000339207588
0.15,1.14882512e-05,0.000111125416,0.000190957911,0.000252708541,0.000298350758,0.000330340837
0.2,5.76339039e-06,0.000102038937,0.000181349811,0.000243063958,0.000289057081,0.000321648564
0.25,2.7621593e-06,9.31823143e-05,0.000171980555,0.000233645229,0.000279963543,0.000313126192
0.3,1.63909203e-06,8.4548848e-05,0.000162842148,0.000224445232,0.000271064358,0.000304769275
0.35,1.18275931e-06,7.6132714e-05,0.00015392688,0.000215457081,0.000262353915,0.00029657349
0.4,9.47177601e-07,6.79294201e-05,0.000145227315,0.000206674116,0.000253826768,0.00028853463
0.45,8.01756812e-07,5.99367857e-05,0.000136736269,0.000198089899,0.000245477638,0.000280648601
0.5,7.01559244e-07,5.21571975e-05,0.000128446784,0.000189698214,0.000237301403,0.000272911419
0.55,6.27595392e-07,4.4603139e-05,0.000120352074,0.000181493057,0.000229293104,0.000265319207
0.6,5.70418343e-07,3.73111506e-05,0.000112445441,0.000173468631,0.00022144794,0.000257868199
0.65,5.24737262e-07,3.03749639e-05,0.000104720133,0.000165619327,0.000213761268,0.000250554734
0.7,4.87324132e-07,2.40031068e-05,9.71691262e-05,0.000157939705,0.000206228604,0.00024337526
0.75,4.56080892e-07,1.85347442e-05,8.97847657e-05,0.000150424454,0.000198845616,0.000236326336
0.8,4.29576609e-07,1.42596053e-05,8.25581867e-05,0.000143068345,0.000191608115,0.000229404625
0.85,4.06797755e-07,1.11680525e-05,7.54784058e-05,0.00013586615,0.000184512053,0.000222606902
0.9,3.87004256e-07,9.00182681e-06,6.85310063e-05,0.000128812544,0.000177553498,0.000215930042
0.95,3.69641969e-07,7.47150887e-06,6.16967121e-05,0.000121901934,0.000170728627,0.000209371027
1.0,3.54287127e-07,6.36101992e-06,5.4951659e-05,0.000115128229,0.00016403369,0.000202926934
1.05,3.4060977e-07,5.52966194e-06,4.82756618e-05,0.000108484475,0.00015746498,0.000196594934
1.1,3.28348944e-07,4.88870494e-06,4.16826846e-05,0.00010196229,0.00015101879,0.000190372281
1.15,3.17295431e-07,4.38162808e-06,3.52835732e-05,9.55510022e-05,0.000144691344,0.000184256304
1.2,3.07279461e-07,3.97150942e-06,2.9332895e-05,8.92363043e-05,0.000138478715,0.000178244398
1.25,2.98161778e-07,3.63351684e-06,2.41450078e-05,8.299826e-05,0.000132376701,0.000172334
1.3,2.89827053e-07,3.35046443e-06,1.99042647e-05,7.68085874e-05,0.00012638065,0.000166522581
1.35,2.82178935e-07,3.11013904e-06,1.6584993e-05,7.06278163e-05,0.000120485209,0.00016080761
1.4,2.75136289e-07,2.9036515e-06,1.40325379e-05,6.44050092e-05,0.000114683947,0.000155186529
1.45,2.68630296e-07,2.72439243e-06,1.2067437e-05,5.80875468e-05,0.000108968798,0.00014965671
1.5,2.62602196e-07,2.56735309e-06,1.0537053e-05,5.16542711e-05,0.00010332923,0.000144215393
1.55,2.5700151e-07,2.42867288e-06,9.32625357e-06,4.51774268e-05,9.77510029e-05,0.000138859617
1.6,2.51784632e-07,2.30533067e-06,8.35211108e-06,3.88731896e-05,9.22143815e-05,0.000133586104
1.65,2.4691369e-07,2.19492986e-06,7.55561574e-06,3.30557011e-05,8.66916879e-05,0.000128391118
1.7,2.42355636e-07,2.0955459e-06,6.89461051e-06,2.79900565e-05,8.11444297e-05,0.000123270249
1.75,2.380815e-07,2.00561604e-06,6.33863175e-06,2.37798175e-05,7.55212093e-05,0.000118218108
1.8,2.34065778e-07,1.92385859e-06,5.86534276e-06,2.03768087e-05,6.97600027e-05,0.000113227887
1.85,2.30285929e-07,1.84921262e-06,5.45810961e-06,1.76560775e-05,6.38023008e-05,0.000108290722
1.9,2.26721959e-07,1.78079261e-06,5.10435347e-06,1.54790456e-05,5.7628393e-05,0.000103394767
1.95,2.23356066e-07,1.71785375e-06,4.7944213e-06,1.37238676e-05,5.13108316e-05,9.85238882e-05
2.0,2.20172352e-07,1.65976512e-06,4.52080265e-06,1.22934515e-05,4.50487538e-05,9.36558684e-05
2.05,2.17156571e-07,1.60598881e-06,4.27757879e-06,1.11137054e-05,3.91270374e-05,8.87601587e-05
2.1,2.14295924e-07,1.55606342e-06,4.06002998e-06,1.01290028e-05,3.38049745e-05,8.37955676e-05
2.15,2.11578878e-07,1.50959093e-06,3.86435132e-06,9.29767791e-06,2.92228685e-05,7.87092514e-05
2.2,2.08995011e-07,1.46622625e-06,3.68744448e-06,8.58836565e-06,2.53904915e-05,7.34402465e-05
2.25,2.06534886e-07,1.42566868e-06,3.5267631e-06,7.97724908e-06,2.22331883e-05,6.79332261e-05
2.3,2.04189934e-07,1.38765504e-06,3.38019647e-06,7.44605304e-06,1.9643579e-05,6.21680429e-05
2.35,2.01952356e-07,1.35195397e-06,3.24598117e-06,6.98059859e-06,1.75142502e-05,5.6200828e-05
2.4,1.99815042e-07,1.3183613e-06,3.12263315e-06,6.56976216e-06,1.57519423e-05,5.01907092e-05
2.45,1.97771492e-07,1.28669618e-06,3.00889499e-06,6.20472264e-06,1.42809068e-05,4.43756311e-05
2.5,1.95815757e-07,1.2567978e-06,2.90369456e-06,5.87841242e-06,1.30415319e-05,3.89954418e-05
2.55,1.93942377e-07,1.22852277e-06,2.80611236e-06,5.58511354e-06,1.19875171e-05,3.42139366e-05
2.6,1.92146336e-07,1.20174273e-06,2.71535549e-06,5.32015754e-06,1.10830057e-05,3.00903856e-05
2.65,1.90423014e-07,1.17634254e-06,2.6307367e-06,5.0797001e-06,1.03001508e-05,2.6600034e-05
2.7,1.88768152e-07,1.15221852e-06,2.55165751e-06,4.8605502e-06,9.61719698e-06,2.36719342e-05
2.75,1.87177816e-07,1.12927716e-06,2.47759433e-06,4.66003934e-06,9.01701722e-06,2.12200746e-05
2.8,1.85648366e-07,1.1074338e-06,2.40808724e-06,4.47592033e-06,8.48601441e-06,1.91613609e-05
2.85,1.84176429e-07,1.08661171e-06,2.34273058e-06,4.30628852e-06,8.01329966e-06,1.74233002e-05
2.9,1.82758879e-07,1.06674111e-06,2.28116527e-06,4.14951974e-06,7.59007735e-06,1.59458228e-05
2.95,1.81392807e-07,1.04775843e-06,2.22307229e-06,4.00422108e-06,7.2091829e-06,1.46804325e-05
3.0,1.8007551e-07,1.02960563e-06,2.1681673e-06,3.86919162e-06,6.86473313e-06,1.35884381e-05
3.05,1.7880447e-07,1.01222963e-06,2.11619606e-06,3.74339079e-06,6.55185991e-06,1.26390848e-05
3.1,1.77577337e-07,9.95581768e-07,2.06693055e-06,3.62591271e-06,6.26650571e-06,1.1807897e-05
3.15,1.7639192e-07,9.79617347e-07,2.02016573e-06,3.51596527e-06,6.00526533e-06,1.10753186e-05
3.2,1.75246167e-07,9.64295263e-07,1.97571666e-06,3.41285298e-06,5.76526254e-06,1.04256353e-05
3.25,1.7413816e-07,9.49577636e-07,1.93341617e-06,3.31596277e-06,5.54405309e-06,9.84613767e-06
3.3,1.73066102e-07,9.35429504e-07,1.89311273e-06,3.22475222e-06,5.33954794e-06,9.32647509e-06
3.35,1.72028308e-07,9.21818547e-07,1.85466871e-06,3.13873977e-06,5.14995196e-06,8.85815848e-06
3.4,1.71023194e-07,9.08714839e-07,1.81795879e-06,3.05749642e-06,4.9737148e-06,8.43417685e-06
3.45,1.70049274e-07,8.96090639e-07,1.78286864e-06,2.98063884e-06,4.80949104e-06,8.04870055e-06
3.5,1.6910515e-07,8.83920186e-07,1.74929374e-06,2.90782346e-06,4.6561079e-06,7.69685046e-06
3.55,1.68189506e-07,8.72179532e-07,1.71713834e-06,2.83874149e-06,4.51253868e-06,7.37451731e-06
3.6,1.673011e-07,8.60846382e-07,1.68631458e-06,2.77311463e-06,4.37788097e-06,7.07821955e-06
3.65,1.66438762e-07,8.49899955e-07,1.65674169e-06,2.71069144e-06,4.25133862e-06,6.80499069e-06
3.7,1.6560139e-07,8.39320858e-07,1.62834528e-06,2.65124418e-06,4.13220664e-06,6.5522895e-06
3.75,1.64787939e-07,8.29090972e-07,1.60105674e-06,2.59456609e-06,4.01985867e-06,6.3179279e-06
3.8,1.63997424e-07,8.19193349e-07,1.57481267e-06,2.54046905e-06,3.91373641e-06,6.10001284e-06
3.85,1.63228911e-07,8.09612117e-07,1.54955441e-06,2.48878152e-06,3.81334069e-06,5.89689897e-06
3.9,1.62481518e-07,8.00332401e-07,1.5252276e-06,2.43934678e-06,3.71822388e-06,5.7071501e-06
3.95,1.61754408e-07,7.91340241e-07,1.50178182e-06,2.39202136e-06,3.62798351e-06,5.52950742e-06
4.0,1.61046787e-07,7.82622525e-07,1.47917018e-06,2.34667365e-06,3.5422567e-06,5.36286332e-06
4.05,1.60357901e-07,7.74166926e-07,1.45734908e-06,2.30318276e-06,3.46071547e-06,5.20623966e-06
4.1,1.59687037e-07,7.65961841e-07,1.4362779e-06,2.26143739e-06,3.38306266e-06,5.05876959e-06
4.15,1.59033516e-07,7.57996344e-07,1.41591873e-06,2.22133495e-06,3.30902843e-06,4.91968236e-06
4.2,1.5839669e-07,7.50260134e-07,1.39623619e-06,2.1827807e-06,3.23836717e-06,4.78829048e-06
4.25,1.57775947e-07,7.4274349e-07,1.3771972e-06,2.14568703e-06,3.1708549e-06,4.6639789e-06
4.3,1.57170701e-07,7.35437233e-07,1.35877078e-06,2.10997279e-06,3.10628694e-06,4.5461958e-06
4.35,1.56580396e-07,7.28332688e-07,1.34092793e-06,2.07556271e-06,3.04447587e-06,4.43444474e-06
4.4,1.560045e-07,7.21421649e-07,1.32364142e-06,2.0423869e-06,2.98524977e-06,4.32827795e-06
4.45,1.55442509e-07,7.14696351e-07,1.30688571e-06,2.01038035e-06,2.92845065e-06,4.22729055e-06
4.5,1.54893939e-07,7.08149436e-07,1.29063679e-06,1.97948252e-06,2.87393308e-06,4.13111557e-06
4.55,1.54358329e-07,7.0177393e-07,1.27487207e-06,1.94963698e-06,2.82156298e-06,4.03941966e-06
4.6,1.5383524e-07,6.95563217e-07,1.25957028e-06,1.92079105e-06,2.77121653e-06,3.95189933e-06
4.65,1.5332425e-07,6.89511018e-07,1.24471138e-06,1.89289549e-06,2.72277918e-06,3.86827775e-06
4.7,1.52824958e-07,6.83611366e-07,1.23027648e-06,1.86590424e-06,2.67614487e-06,3.78830183e-06
4.75,1.52336979e-07,6.77858593e-07,1.21624771e-06,1.83977418e-06,2.63121519e-06,3.71173982e-06
4.8,1.51859944e-07,6.72247305e-07,1.20260824e-06,1.81446485e-06,2.58789877e-06,3.63837907e-06
4.85,1.51393503e-07,6.66772369e-07,1.18934212e-06,1.78993831e-06,2.5461106e-06,3.56802415e-06
4.9,1.50937317e-07,6.61428899e-07,1.17643426e-06,1.76615889e-06,2.50577154e-06,3.50049511e-06
4.95,1.50491062e-07,6.56212237e-07,1.16387039e-06,1.74309308e-06,2.46680779e-06,3.43562601e-06
5.0,1.50054429e-07,6.51117944e-07,1.15163698e-06,1.72070931e-06,2.42915046e-06,3.3732636e-06
5.05,1.4962712e-07,6.46141784e-07,1.13972119e-06,1.69897786e-06,2.39273519e-06,3.31326611e-06
5.1,1.4920885e-07,6.41279715e-07,1.12811084e-06,1.67787071e-06,2.35750174e-06,3.25550223e-06
5.15,1.48799345e-07,6.36527876e-07,1.11679437e-06,1.65736141e-06,2.32339371e-06,3.19985011e-06
5.2,1.48398342e-07,6.3188258e-07,1.10576079e-06,1.63742498e-06,2.29035821e-06,3.14619661e-06
5.25,1.48005588e-07,6.27340301e-07,1.09499965e-06,1.61803781e-06,2.25834562e-06,3.09443647e-06
5.3,1.4762084e-07,6.22897666e-07,1.08450102e-06,1.59917757e-06,2.2273093e-06,3.04447167e-06
5.35,1.47243865e-07,6.18551449e-07,1.07425542e-06,1.58082314e-06,2.19720543e-06,2.99621081e-06
5.4,1.46874438e-07,6.14298561e-07,1.06425385e-06,1.56295448e-06,2.16799273e-06,2.94956857e-06
5.45,1.46512342e-07,6.10136043e-07,1.05448771e-06,1.5455526e-06,2.13963233e-06,2.90446521e-06
5.5,1.46157371e-07,6.0606106e-07,1.04494881e-06,1.52859951e-06,2.1120876e-06,2.86082612e-06
5.55,1.45809323e-07,6.02070894e-07,1.03562933e-06,1.51207811e-06,2.08532394e-06,2.81858142e-06
5.6,1.45468006e-07,5.98162939e-07,1.0265218e-06,1.49597215e-06,2.05930871e-06,2.77766561e-06
5.65,1.45133233e-07,5.94334692e-07,1.01761911e-06,1.4802662e-06,2.03401102e-06,2.73801718e-06
5.7,1.44804826e-07,5.90583754e-07,1.00891442e-06,1.46494559e-06,2.0094017e-06,2.69957838e-06
5.75,1.44482612e-07,5.86907818e-07,1.00040124e-06,1.44999632e-06,1.9854531e-06,2.66229488e-06
5.8,1.44166423e-07,5.83304671e-07,9.92073317e-07,1.43540511e-06,1.96213904e-06,2.62611555e-06
5.85,1.43856101e-07,5.79772182e-07,9.83924695e-07,1.42115927e-06,1.9394347e-06,2.59099224e-06
5.9,1.43551488e-07,5.76308306e-07,9.7594966e-07,1.4072467e-06,1.91731653e-06,2.55687954e-06
5.95,1.43252437e-07,5.72911074e-07,9.68142738e-07,1.39365589e-06,1.8957622e-06,2.52373459e-06
6.0,1.42958801e-07,5.69578592e-07,9.60498685e-07,1.38037581e-06,1.87475046e-06,2.49151693e-06
6.05,1.42670441e-07,5.66309037e-07,9.53012471e-07,1.36739597e-06,1.85426115e-06,2.4601883e-06
6.1,1.42387222e-07,5.63100654e-07,9.4567927e-07,1.35470631e-06,1.83427506e-06,2.42971253e-06
6.15,1.42109015e-07,5.59951752e-07,9.38494454e-07,1.34229724e-06,1.81477393e-06,2.40005537e-06
6.2,1.41835691e-07,5.56860703e-07,9.31453575e-07,1.33015957e-06,1.79574037e-06,2.37118438e-06
6.25,1.41567131e-07,5.53825934e-07,9.24552365e-07,1.31828452e-06,1.7771578e-06,2.34306879e-06
6.3,1.41303215e-07,5.50845934e-07,9.17786719e-07,1.30666368e-06,1.75901042e-06,2.31567944e-06
6.35,1.41043829e-07,5.47919241e-07,9.11152695e-07,1.29528898e-06,1.74128316e-06,2.28898863e-06
6.4,1.40788864e-07,5.45044447e-07,9.04646499e-07,1.28415272e-06,1.72396163e-06,2.26297004e-06
6.45,1.40538211e-07,5.42220191e-07,8.98264483e-07,1.27324748e-06,1.7070321e-06,2.23759867e-06
6.5,1.40291768e-07,5.39445162e-07,8.92003135e-07,1.26256616e-06,1.69048143e-06,2.21285074e-06
6.55,1.40049434e-07,5.3671809e-07,8.85859077e-07,1.25210197e-06,1.67429709e-06,2.18870361e-06
6.6,1.39811112e-07,5.34037753e-07,8.79829052e-07,1.24184836e-06,1.65846708e-06,2.16513572e-06
