vds,vb1,vb2,vb3,vb4,vb5,vb6
0.0,2.32473668e-05,6.79738505e-05,0.000102221123,0.000128486526,0.000147974967,0.000161854703
0.05,1.90929109e-05,6.33020673e-05,9.72838637e-05,0.000123514297,0.000143152724,0.000157303148
0.1,1.50696394e-05,5.87689144e-05,9.24919286e-05,0.000118680353,0.000138454382,0.000152858394
0.15,1.12129976e-05,5.43690873e-05,8.78396201e-05,0.00011397957,0.000133875705,0.000148517111
0.2,7.64413482e-06,5.00975222e-05,8.33214075e-05,0.000109406974,0.000129412582,0.000144276064
0.25,4.7116199e-06,4.59494448e-05,7.89318887e-05,0.000104957695,0.000125060989,0.000140132088
0.3,2.88270895e-06,4.19204843e-05,7.46657963e-05,0.000100626944,0.000120816963,0.000136082069
0.35,2.01047504e-06,3.80068329e-05,7.05180372e-05,9.64100188e-05,0.000116676592,0.00013212293
0.4,1.58634447e-06,3.42054621e-05,6.64837474e-05,9.23023331e-05,0.000112636021,0.000128251627
0.45,1.34108102e-06,3.0514473e-05,6.25583425e-05,8.82994512e-05,0.000108691468,0.00012446515
0.5,1.17811791e-06,2.69338122e-05,5.87375488e-05,8.43971324e-05,0.000104839248,0.000120760537
0.55,1.06017303e-06,2.34669405e-05,5.50174021e-05,8.05913694e-05,0.000101075798,0.000117134886
0.6,9.70104687e-07,2.01249853e-05,5.13942039e-05,7.68784167e-05,9.73977103e-05,0.00011358537
0.65,8.98774204e-07,1.69368668e-05,4.78644211e-05,7.32548056e-05,9.38017543e-05,0.000110109255
0.7,8.40764191e-07,1.39692175e-05,4.44245064e-05,6.97173421e-05,9.0284898e-05,0.000106703921
0.75,7.92613767e-07,1.13414764e-05,4.10706006e-05,6.62630838e-05,8.68443219e-05,0.000103366871
0.8,7.51988487e-07,9.18061998e-06,3.77980433e-05,6.28892944e-05,8.34774261e-05,0.000100095749
0.85,7.1724767e-07,7.52186981e-06,3.46005889e-05,5.95933684e-05,8.0181827e-05,9.68883516e-05
0.9,6.87200402e-07,6.29179174e-06,3.14692567e-05,5.63727195e-05,7.69553471e-05,9.37426277e-05
0.95,6.60959341e-07,5.38017933e-06,2.83911495e-05,5.32246145e-05,7.3795993e-05,9.06566869e-05
1.0,6.37848804e-07,4.69263607e-06,2.53502548e-05,5.01459243e-05,7.07019241e-05,8.76287957e-05
1.05,6.17344702e-07,4.16183984e-06,2.23365264e-05,4.71327432e-05,6.76714081e-05,8.46573714e-05
1.1,5.9903402e-07,3.74240461e-06,1.9372589e-05,4.41797928e-05,6.47027607e-05,8.17409729e-05
1.15,5.82586725e-07,3.40389272e-06,1.65477147e-05,4.12794908e-05,6.1794265e-05,7.88782855e-05
1.2,5.67735846e-07,3.12558893e-06,1.40036935e-05,3.84205424e-05,5.89440593e-05,7.60681018e-05
1.25,5.5426305e-07,2.89308744e-06,1.18517068e-05,3.55860463e-05,5.61499801e-05,7.33092971e-05
1.3,5.41988029e-07,2.69613767e-06,1.01127262e-05,3.27517733e-05,5.34093333e-05,7.06007988e-05
1.35,5.30760551e-07,2.5272826e-06,8.73723601e-06,2.98873082e-05,5.07185531e-05,6.79415469e-05
1.4,5.20454438e-07,2.38098535e-06,7.6520036e-06,2.696657e-05,4.80726865e-05,6.53304443e-05
1.45,5.10962931e-07,2.25305748e-06,6.78875176e-06,2.39950791e-05,4.54646111e-05,6.27662912e-05
1.5,5.02195093e-07,2.14027697e-06,6.09314362e-06,2.10441721e-05,4.28838779e-05,6.02476961e-05
1.55,4.94072984e-07,2.04012743e-06,5.52453862e-06,1.82498279e-05,4.03151193e-05,5.77729523e-05
1.6,4.86529421e-07,1.95061658e-06,5.05315932e-06,1.57512364e-05,3.77362457e-05,5.53398622e-05
1.65,4.79506182e-07,1.87014749e-06,4.65721462e-06,1.36238083e-05,3.51175463e-05,5.29454803e-05
1.7,4.72952566e-07,1.79742581e-06,4.32063216e-06,1.18675693e-05,3.24247975e-05,5.05857342e-05
1.75,4.66824216e-07,1.7313917e-06,4.03141577e-06,1.04372419e-05,2.96319043e-05,4.82548649e-05
1.8,4.61082157e-07,1.6711693e-06,3.78049078e-06,9.27385476e-06,2.67463907e-05,4.59446112e-05
1.85,4.5569201e-07,1.61602863e-06,3.56089821e-06,8.32208496e-06,2.38356517e-05,4.36430749e-05
1.9,4.50623328e-07,1.56535655e-06,3.36723031e-06,7.5361724e-06,2.10229223e-05,4.13332983e-05
1.95,4.45849057e-07,1.51863438e-06,3.1952317e-06,6.88028366e-06,1.84397133e-05,3.8991925e-05
2.0,4.41345073e-07,1.47542045e-06,3.0415142e-06,6.32697211e-06,1.61720158e-05,3.65891424e-05
2.05,4.370898e-07,1.43533631e-06,2.90335053e-06,5.8553345e-06,1.42430399e-05,3.40925902e-05
2.1,4.3306388e-07,1.39805592e-06,2.77852307e-06,5.44940691e-06,1.26300807e-05,3.14790867e-05
2.15,4.29249898e-07,1.36329684e-06,2.66521176e-06,5.09691059e-06,1.12893787e-05,2.87552059e-05
2.2,4.25632144e-07,1.33081323e-06,2.56190982e-06,4.78831393e-06,1.0173476e-05,2.59768113e-05
2.25,4.22196411e-07,1.3003901e-06,2.46735989e-06,4.51614305e-06,9.23951476e-06,2.32466969e-05
2.3,4.18929817e-07,1.27183866e-06,2.3805049e-06,4.27447725e-06,8.45182116e-06,2.06812855e-05
2.35,4.15820659e-07,1.24499242e-06,2.3004501e-06,4.05857896e-06,7.78181742e-06,1.83687539e-05
2.4,4.12858278e-07,1.21970401e-06,2.22643326e-06,3.86462062e-06,7.20698746e-06,1.63487914e-05
2.45,4.10032947e-07,1.19584254e-06,2.15780123e-06,3.68948152e-06,6.70967876e-06,1.46187896e-05
2.5,4.07335771e-07,1.17329133e-06,2.09399117e-06,3.53059528e-06,6.27603138e-06,1.31512778e-05
2.55,4.04758602e-07,1.15194606e-06,2.0345156e-06,3.3858343e-06,5.89510847e-06,1.1909339e-05
2.6,4.02293958e-07,1.13171314e-06,1.97895025e-06,3.25342139e-06,5.5582201e-06,1.0855879e-05
2.65,3.99934965e-07,1.11250844e-06,1.92692418e-06,3.13186152e-06,5.25840762e-06,9.95782155e-06
2.7,3.97675285e-07,1.09425605e-06,1.87811172e-06,3.01988873e-06,4.99005321e-06,9.18734085e-06
2.75,3.95509078e-07,1.07688735e-06,1.83222577e-06,2.91642442e-06,4.74858449e-06,8.52169769e-06
2.8,3.93430942e-07,1.06034014e-06,1.7890123e-06,2.82054427e-06,4.53025025e-06,7.94255713e-06
2.85,3.91435882e-07,1.04455789e-06,1.74824573e-06,2.73145192e-06,4.33194941e-06,7.43520265e-06
2.9,3.89519268e-07,1.02948914e-06,1.70972507e-06,2.64845775e-06,4.15109954e-06,6.98781532e-06
2.95,3.87676803e-07,1.01508695e-06,1.67327068e-06,2.57096173e-06,3.98553525e-06,6.59086951e-06
3.0,3.85904496e-07,1.00130836e-06,1.63872151e-06,2.49843947e-06,3.83342892e-06,6.23664763e-06
3.05,3.84198631e-07,9.88114058e-07,1.60593276e-06,2.43043072e-06,3.6932285e-06,5.91885839e-06
3.1,3.82555749e-07,9.75467922e-07,1.57477389e-06,2.36652994e-06,3.56360832e-06,5.63233942e-06
3.15,3.80972622e-07,9.63336758e-07,1.54512693e-06,2.30637846e-06,3.44342982e-06,5.37282624e-06
3.2,3.79446236e-07,9.5168999e-07,1.51688496e-06,2.24965792e-06,3.33171016e-06,5.13677266e-06
3.25,3.77973775e-07,9.40499406e-07,1.48995091e-06,2.19608482e-06,3.22759678e-06,4.92121066e-06
3.3,3.76552601e-07,9.29738939e-07,1.46423641e-06,2.14540589e-06,3.13034676e-06,4.72364057e-06
3.35,3.75180246e-07,9.19384464e-07,1.43966084e-06,2.09739416e-06,3.03930992e-06,4.5419446e-06
3.4,3.73854392e-07,9.09413624e-07,1.41615054e-06,2.05184571e-06,2.95391493e-06,4.37431822e-06
3.45,3.72572866e-07,8.99805667e-07,1.39363804e-06,2.00857676e-06,2.87365782e-06,4.21921556e-06
3.5,3.71333625e-07,8.90541308e-07,1.37206141e-06,1.96742131e-06,2.79809242e-06,4.07530546e-06
3.55,3.70134747e-07,8.81602602e-07,1.35136377e-06,1.92822901e-06,2.72682238e-06,3.94143614e-06
3.6,3.68974424e-07,8.72972826e-07,1.33149271e-06,1.8908634e-06,2.65949443e-06,3.81660638e-06
3.65,3.67850953e-07,8.64636381e-07,1.31239991e-06,1.8552003e-06,2.59579275e-06,3.69994209e-06
3.7,3.66762727e-07,8.56578697e-07,1.29404074e-06,1.82112654e-06,2.53543415e-06,3.59067699e-06
3.75,3.65708229e-07,8.48786151e-07,1.2763739e-06,1.78853867e-06,2.478164e-06,3.48813671e-06
3.8,3.64686028e-07,8.4124599e-07,1.25936113e-06,1.75734204e-06,2.42375275e-06,3.39172554e-06
3.85,3.6369477e-07,8.33946263e-07,1.24296692e-06,1.72744982e-06,2.37199289e-06,3.30091541e-06
3.9,3.62733175e-07,8.26875761e-07,1.2271583e-06,1.69878225e-06,2.32269643e-06,3.21523669e-06
3.95,3.61800031e-07,8.20023958e-07,1.21190458e-06,1.6712659e-06,2.27569266e-06,3.13427032e-06
4.0,3.60894191e-07,8.1338096e-07,1.19717718e-06,1.64483309e-06,2.23082617e-06,3.05764133e-06
4.05,3.60014565e-07,8.0693746e-07,1.18294944e-06,1.61942134e-06,2.18795526e-06,2.98501317e-06
4.1,3.59160122e-07,8.00684693e-07,1.16919647e-06,1.59497283e-06,2.1469504e-06,2.91608296e-06
4.15,3.58329882e-07,7.946144e-07,1.155895e-06,1.57143406e-06,2.10769299e-06,2.85057744e-06
4.2,3.57522914e-07,7.88718788e-07,1.14302326e-06,1.54875537e-06,2.07007424e-06,2.78824945e-06
4.25,3.56738334e-07,7.82990504e-07,1.13056084e-06,1.52689066e-06,2.03399416e-06,2.72887489e-06
4.3,3.559753e-07,7.77422595e-07,1.11848861e-06,1.50579704e-06,1.99936069e-06,2.67225012e-06
4.35,3.55233011e-07,7.72008492e-07,1.10678861e-06,1.4854346e-06,1.96608896e-06,2.61818969e-06
4.4,3.54510707e-07,7.66741975e-07,1.09544396e-06,1.46576611e-06,1.93410058e-06,2.56652438e-06
4.45,3.53807659e-07,7.61617155e-07,1.08443879e-06,1.44675681e-06,1.90332304e-06,2.51709943e-06
4.5,3.53123178e-07,7.56628451e-07,1.07375815e-06,1.42837425e-06,1.87368917e-06,2.46977309e-06
4.55,3.52456601e-07,7.5177057e-07,1.06338796e-06,1.41058804e-06,1.84513667e-06,2.42441525e-06
4.6,3.51807301e-07,7.47038489e-07,1.05331494e-06,1.39336973e-06,1.81760766e-06,2.38090628e-06
4.65,3.51174674e-07,7.42427439e-07,1.04352654e-06,1.37669265e-06,1.7910483e-06,2.33913601e-06
4.7,3.50558146e-07,7.37932885e-07,1.03401093e-06,1.36053176e-06,1.76540846e-06,2.29900282e-06
4.75,3.4995717e-07,7.33550519e-07,1.02475691e-06,1.34486355e-06,1.74064139e-06,2.2604128e-06
4.8,3.49371219e-07,7.29276238e-07,1.01575389e-06,1.3296659e-06,1.71670346e-06,2.2232791e-06
4.85,3.48799791e-07,7.25106138e-07,1.00699184e-06,1.31491801e-06,1.69355387e-06,2.18752119e-06
4.9,3.48242407e-07,7.21036501e-07,9.98461247e-07,1.30060026e-06,1.67115445e-06,2.15306438e-06
4.95,3.47698605e-07,7.17063781e-07,9.9015311e-07,1.28669417e-06,1.64946947e-06,2.11983926e-06
5.0,3.47167945e-07,7.13184597e-07,9.82058874e-07,1.27318231e-06,1.6284654e-06,2.08778125e-06
5.05,3.46650005e-07,7.09395723e-07,9.74170419e-07,1.26004818e-06,1.60811079e-06,2.0568302e-06
5.1,3.4614438e-07,7.05694078e-07,9.66480032e-07,1.24727623e-06,1.58837608e-06,2.02692999e-06
5.15,3.4565068e-07,7.02076722e-07,9.58980378e-07,1.23485173e-06,1.56923347e-06,1.99802823e-06
5.2,3.45168534e-07,6.9854084e-07,9.51664479e-07,1.22276073e-06,1.55065681e-06,1.97007595e-06
5.25,3.44697584e-07,6.95083745e-07,9.44525693e-07,1.21099003e-06,1.53262144e-06,1.94302731e-06
5.3,3.44237486e-07,6.91702865e-07,9.37557693e-07,1.1995271e-06,1.51510413e-06,1.91683935e-06
5.35,3.4378791e-07,6.88395736e-07,9.30754451e-07,1.18836007e-06,1.49808295e-06,1.89147182e-06
5.4,3.43348538e-07,6.85160002e-07,9.24110215e-07,1.17747767e-06,1.48153718e-06,1.86688691e-06
5.45,3.42919066e-07,6.81993404e-07,9.17619501e-07,1.16686917e-06,1.46544724e-06,1.84304908e-06
5.5,3.42499201e-07,6.78893777e-07,9.11277072e-07,1.1565244e-06,1.44979461e-06,1.81992492e-06
5.55,3.4208866e-07,6.75859044e-07,9.05077924e-07,1.14643368e-06,1.43456176e-06,1.79748298e-06
5.6,3.41687172e-07,6.72887216e-07,8.99017279e-07,1.13658778e-06,1.41973208e-06,1.77569361e-06
5.65,3.41294475e-07,6.69976379e-07,8.93090565e-07,1.12697793e-06,1.40528982e-06,1.75452886e-06
5.7,3.40910317e-07,6.671247e-07,8.87293411e-07,1.11759578e-06,1.39122004e-06,1.73396236e-06
5.75,3.40534456e-07,6.64330417e-07,8.81621633e-07,1.10843333e-06,1.37750855e-06,1.71396917e-06
5.8,3.40166658e-07,6.61591835e-07,8.76071224e-07,1.09948299e-06,1.36414188e-06,1.69452573e-06
5.85,3.39806697e-07,6.58907326e-07,8.70638347e-07,1.09073749e-06,1.35110723e-06,1.67560977e-06
5.9,3.39454357e-07,6.56275327e-07,8.65319322e-07,1.08218991e-06,1.3383924e-06,1.65720016e-06
5.95,3.39109427e-07,6.5369433e-07,8.60110624e-07,1.07383362e-06,1.32598581e-06,1.63927692e-06
6.0,3.38771706e-07,6.51162886e-07,8.5500887e-07,1.06566228e-06,1.31387641e-06,1.62182108e-06
6.05,3.38440997e-07,6.48679602e-07,8.50010813e-07,1.05766984e-06,1.30205368e-06,1.60481466e-06
6.1,3.38117113e-07,6.46243132e-07,8.45113336e-07,1.04985051e-06,1.29050758e-06,1.58824057e-06
6.15,3.37799871e-07,6.43852183e-07,8.40313447e-07,1.04219873e-06,1.27922855e-06,1.57208259e-06
6.2,3.37489095e-07,6.41505508e-07,8.35608269e-07,1.03470919e-06,1.26820744e-06,1.55632529e-06
6.25,3.37184616e-07,6.39201904e-07,8.30995038e-07,1.02737679e-06,1.25743554e-06,1.54095399e-06
6.3,3.36886269e-07,6.36940212e-07,8.26471096e-07,1.02019666e-06,1.2469045e-06,1.52595472e-06
6.35,3.36593895e-07,6.34719313e-07,8.22033886e-07,1.01316412e-06,1.23660637e-06,1.51131419e-06
6.4,3.36307341e-07,6.32538129e-07,8.17680947e-07,1.00627466e-06,1.2265335e-06,1.4970197e-06
6.45,3.36026457e-07,6.30395617e-07,8.13409911e-07,9.99523981e-07,1.21667863e-06,1.48305917e-06
6.5,3.35751101e-07,6.28290771e-07,8.09218498e-07,9.92907938e-07,1.20703475e-06,1.46942106e-06
6.55,3.35481133e-07,6.26222621e-07,8.05104509e-07,9.86422554e-07,1.19759518e-06,1.45609436e-06
6.6,3.35216418e-07,6.24190227e-07,8.01065827e-07,9.80064004e-07,1.18835351e-06,1.44306856e-06
