vds,vb1,vb2,vb3,vb4,vb5,vb6
0.0,0.000521052131,0.00205559543,0.00320296268,0.00405264263,0.00464675627,0.00503251719
0.05,0.000385742584,0.00188742276,0.00302030643,0.00386749338,0.00446831441,0.00486642169
0.1,0.000258638767,0.00172589219,0.00284464409,0.00368893667,0.00429565444,0.00470516714
0.15,0.000147928204,0.00157066682,0.00267562115,0.0035166616,0.00412852834,0.00454856678
0.2,7.4738378e-05,0.00142143367,0.00251290248,0.00335037339,0.00396670004,0.00439644209
0.25,4.39898211e-05,0.0012779051,0.00235617044,0.00318979156,0.00380994412,0.00424862199
0.3,3.23034602e-05,0.00113982244,0.00220512376,0.00303464881,0.00365804486,0.00410494214
0.35,2.65765779e-05,0.00100696322,0.00205947698,0.0028846905,0.00351079564,0.00396524449
0.4,2.30874637e-05,0.00087915692,0.00191895931,0.00273967437,0.00336799871,0.00382937699
0.45,2.06832028e-05,0.00075632681,0.00178331261,0.00259937042,0.00322946501,0.00369719338
0.5,1.89045813e-05,0.000638615515,0.00165228728,0.00246356051,0.00309501423,0.0035685532
0.55,1.75277185e-05,0.000526770204,0.00152563483,0.00233203755,0.00296447473,0.00344332175
0.6,1.64274428e-05,0.000423108059,0.00140309503,0.0022046041,0.00283768342,0.0033213701
0.65,1.5527009e-05,0.000332525601,0.00128437328,0.00208106997,0.00271448544,0.00320257509
0.7,1.47762174e-05,0.000260338052,0.00116910162,0.00196124851,0.00259473365,0.00308681931
0.75,1.41406277e-05,0.000207332802,0.00105677476,0.0018449509,0.00247828774,0.00297399092
0.8,1.35957268e-05,0.000169712178,0.000946664298,0.00173197708,0.0023650131,0.00286398344
0.85,1.31235467e-05,0.000142820406,0.000837785454,0.00162210148,0.00225477897,0.0027566955
0.9,1.27105955e-05,0.000123099049,0.00072922311,0.00151504974,0.00214745608,0.0026520303
0.95,1.23465341e-05,0.000108200428,0.000621422662,0.00141046063,0.00204291309,0.00254989509
1.0,1.20233008e-05,9.66265968e-05,0.000518172644,0.00130782504,0.00194101144,0.00245020032
1.05,1.17345138e-05,8.7412685e-05,0.000426132004,0.00120639495,0.00184159773,0.00235285865
1.1,1.14750542e-05,7.99218694e-05,0.000350346939,0.00110507585,0.00174449197,0.00225778351
1.15,1.12407672e-05,7.37218637e-05,0.000291272886,0.00100239675,0.00164946929,0.00216488724
1.2,1.10282451e-05,6.85110276e-05,0.000246231456,0.000896852474,0.00155623133,0.00207407848
1.25,1.08346665e-05,6.40734522e-05,0.000211850376,0.000788098982,0.00146436164,0.00198525843
1.3,1.06576753e-05,6.02509984e-05,0.000185263178,0.000678832081,0.00137325922,0.00189831549
1.35,1.04952886e-05,5.69254316e-05,0.000164340695,0.000575189879,0.00128204985,0.00181311719
1.4,1.03458256e-05,5.40067153e-05,0.000147574176,0.00048373739,0.00118950164,0.00172949817
1.45,1.02078523e-05,5.14251524e-05,0.000133904914,0.00040783279,0.00109404946,0.00164724178
1.5,1.0080138e-05,4.91259934e-05,0.000122584962,0.000347110082,0.000994178939,0.00156605229
1.55,9.96162027e-06,4.70656598e-05,0.000113078529,0.000299210808,0.000889482189,0.00148551346
1.6,9.85137736e-06,4.52090496e-05,0.000104995407,0.000261386792,0.000782147587,0.00140503034
1.65,9.74860575e-06,4.35275834e-05,9.80465332e-05,0.000231243362,0.000677377129,0.00132375741
1.7,9.65260178e-06,4.19977631e-05,9.20142103e-05,0.00020691326,0.000581355986,0.00124053957
1.75,9.56274664e-06,4.06000957e-05,8.67319125e-05,0.000187003937,0.000498289481,0.00115394874
1.8,9.47849401e-06,3.93182784e-05,8.2070405e-05,0.000170491481,0.000429255959,0.00106259105
1.85,9.39935978e-06,3.81385733e-05,7.79280485e-05,0.000156622579,0.000373074112,0.000965884532
1.9,9.32491346e-06,3.70493245e-05,7.42239242e-05,0.000144838645,0.000327636551,0.000865175889
1.95,9.254771e-06,3.60405788e-05,7.08928832e-05,0.000134720818,0.000290779551,0.000764296114
2.0,9.18858869e-06,3.51037865e-05,6.78819309e-05,0.000125951057,0.000260644346,0.000668502557
2.05,9.12605806e-06,3.42315636e-05,6.51475504e-05,0.000118284762,0.000235752182,0.000582293725
2.1,9.06690146e-06,3.34174999e-05,6.26536959e-05,0.000111531454,0.000214965218,0.000507926546
2.15,9.01086833e-06,3.26560037e-05,6.03702694e-05,0.000105541018,0.000197418272,0.000445471656
2.2,8.95773201e-06,3.1942176e-05,5.82719534e-05,0.000100193814,0.00018245394,0.000393696683
2.25,8.90728694e-06,3.12717065e-05,5.63373045e-05,9.53934892e-05,0.000169570093,0.000350905075
2.3,8.8593463e-06,3.06407876e-05,5.45480454e-05,9.10616783e-05,0.000158380042,0.000315425752
2.35,8.81373991e-06,3.00460441e-05,5.28885049e-05,8.71340687e-05,0.000148583116,0.000285813953
2.4,8.77031244e-06,2.94844726e-05,5.13451722e-05,8.35574331e-05,0.000139943146,0.000260894113
2.45,8.72892186e-06,2.89533928e-05,4.99063394e-05,8.02873728e-05,0.000132272739,0.000239736374
2.5,8.68943798e-06,2.84504046e-05,4.85618114e-05,7.72865838e-05,0.000125421732,0.000221613547
2.55,8.65174133e-06,2.79733527e-05,4.73026711e-05,7.45235104e-05,0.000119268653,0.000205958127
2.6,8.61572204e-06,2.75202961e-05,4.61210857e-05,7.19712908e-05,0.00011371436,0.000192325859
2.65,8.58127891e-06,2.70894825e-05,4.50101478e-05,6.96069243e-05,0.000108677251,0.000180366909
2.7,8.54831858e-06,2.66793255e-05,4.39637428e-05,6.74106082e-05,0.000104089628,0.000169803749
2.75,8.5167548e-06,2.62883856e-05,4.29764392e-05,6.5365205e-05,9.98949139e-05,0.000160414424
2.8,8.48650775e-06,2.5915354e-05,4.20433959e-05,6.34558125e-05,9.6045495e-05,0.000152019944
2.85,8.45750345e-06,2.55590375e-05,4.11602844e-05,6.16694131e-05,9.25010408e-05,0.000144474773
2.9,8.42967328e-06,2.52183463e-05,4.0323223e-05,5.99945879e-05,8.92271826e-05,0.000137659631
2.95,8.40295346e-06,2.48922833e-05,3.95287208e-05,5.84212792e-05,8.61944652e-05,0.000131475997
3.0,8.37728468e-06,2.4579934e-05,3.87736297e-05,5.69405957e-05,8.33775095e-05,0.000125841908
3.05,8.35261167e-06,2.42804585e-05,3.80551039e-05,5.55446485e-05,8.07543388e-05,0.000120688694
3.1,8.3288829e-06,2.39930839e-05,3.73705639e-05,5.42264149e-05,7.83058329e-05,0.000115958452
3.15,8.30605025e-06,2.37170978e-05,3.67176666e-05,5.29796229e-05,7.60152832e-05,0.000111602053
3.2,8.28406876e-06,2.34518424e-05,3.6094279e-05,5.17986547e-05,7.38680274e-05,0.000107577567
3.25,8.26289633e-06,2.31967096e-05,3.54984547e-05,5.06784631e-05,7.18511483e-05,0.000103849017
3.3,8.24249356e-06,2.29511362e-05,3.49284146e-05,4.96145018e-05,6.99532234e-05,0.000100385372
3.35,8.2228235e-06,2.27145998e-05,3.43825288e-05,4.86026648e-05,6.81641171e-05,9.71597359e-05
3.4,8.20385146e-06,2.24866154e-05,3.38593017e-05,4.76392348e-05,6.64748049e-05,9.41486908e-05
3.45,8.18554486e-06,2.2266732e-05,3.33573584e-05,4.67208379e-05,6.48772266e-05,9.13317592e-05
3.5,8.16787307e-06,2.20545296e-05,3.28754325e-05,4.58444057e-05,6.3364162e-05,8.86909607e-05
3.55,8.15080726e-06,2.18496167e-05,3.24123562e-05,4.50071411e-05,6.19291242e-05,8.6210447e-05
3.6,8.13432028e-06,2.16516278e-05,3.19670502e-05,4.42064893e-05,6.05662698e-05,8.38761983e-05
3.65,8.11838653e-06,2.14602215e-05,3.15385161e-05,4.34401121e-05,5.92703216e-05,8.16757686e-05
3.7,8.10298186e-06,2.12750784e-05,3.11258287e-05,4.27058655e-05,5.80365016e-05,7.95980734e-05
3.75,8.08808347e-06,2.10958991e-05,3.07281293e-05,4.20017802e-05,5.68604738e-05,7.76332098e-05
3.8,8.07366981e-06,2.09224033e-05,3.03446201e-05,4.1326044e-05,5.57382945e-05,7.57723042e-05
3.85,8.0597205e-06,2.07543277e-05,2.99745589e-05,4.06769865e-05,5.46663694e-05,7.4007383e-05
3.9,8.04621627e-06,2.05914251e-05,2.96172541e-05,4.00530656e-05,5.36414153e-05,7.23312624e-05
3.95,8.03313885e-06,2.04334629e-05,2.92720606e-05,3.94528556e-05,5.26604279e-05,7.0737453e-05
4.0,8.02047094e-06,2.02802224e-05,2.89383761e-05,3.8875036e-05,5.17206524e-05,6.92200789e-05
4.05,8.00819614e-06,2.01314973e-05,2.86156374e-05,3.83183824e-05,5.08195586e-05,6.77738071e-05
4.1,7.99629886e-06,1.99870934e-05,2.83033173e-05,3.77817581e-05,4.99548186e-05,6.63937866e-05
4.15,7.98476433e-06,1.98468273e-05,2.80009221e-05,3.72641056e-05,4.91242867e-05,6.50755954e-05
4.2,7.97357849e-06,1.97105257e-05,2.77079886e-05,3.67644409e-05,4.83259821e-05,6.38151945e-05
4.25,7.96272801e-06,1.9578025e-05,2.74240817e-05,3.62818462e-05,4.75580738e-05,6.26088873e-05
4.3,7.95220016e-06,1.94491704e-05,2.71487928e-05,3.58154654e-05,4.6818866e-05,6.14532844e-05
4.35,7.94198287e-06,1.93238152e-05,2.68817375e-05,3.53644982e-05,4.61067866e-05,6.03452724e-05
4.4,7.93206461e-06,1.92018207e-05,2.66225538e-05,3.49281962e-05,4.54203759e-05,5.92819866e-05
4.45,7.92243442e-06,1.90830552e-05,2.63709006e-05,3.45058585e-05,4.47582766e-05,5.82607866e-05
4.5,7.91308184e-06,1.89673938e-05,2.61264562e-05,3.40968279e-05,4.41192251e-05,5.72792349e-05
4.55,7.90399689e-06,1.8854718e-05,2.58889168e-05,3.37004879e-05,4.35020438e-05,5.63350781e-05
4.6,7.89517005e-06,1.87449153e-05,2.56579956e-05,3.33162594e-05,4.29056334e-05,5.54262294e-05
4.65,7.88659222e-06,1.86378786e-05,2.54334213e-05,3.29435978e-05,4.23289673e-05,5.45507541e-05
4.7,7.87825473e-06,1.85335061e-05,2.52149372e-05,3.25819908e-05,4.17710849e-05,5.37068556e-05
4.75,7.87014926e-06,1.84317009e-05,2.50023003e-05,3.22309555e-05,4.12310869e-05,5.28928637e-05
4.8,7.86226789e-06,1.83323708e-05,2.47952803e-05,3.1890037e-05,4.07081302e-05,5.21072233e-05
4.85,7.85460301e-06,1.82354278e-05,2.45936587e-05,3.15588059e-05,4.0201424e-05,5.1348485e-05
4.9,7.84714736e-06,1.81407881e-05,2.43972283e-05,3.12368568e-05,3.97102252e-05,5.06152964e-05
4.95,7.83989399e-06,1.80483719e-05,2.42057923e-05,3.09238064e-05,3.92338356e-05,4.99063937e-05
5.0,7.83283622e-06,1.79581028e-05,2.40191638e-05,3.06192924e-05,3.87715979e-05,4.92205949e-05
5.05,7.82596766e-06,1.78699078e-05,2.38371649e-05,3.03229717e-05,3.83228931e-05,4.85567933e-05
5.1,7.8192822e-06,1.77837175e-05,2.36596265e-05,3.00345193e-05,3.78871377e-05,4.79139515e-05
5.15,7.81277396e-06,1.76994652e-05,2.34863875e-05,2.97536272e-05,3.74637812e-05,4.72910962e-05
5.2,7.80643729e-06,1.76170873e-05,2.33172945e-05,2.94800032e-05,3.70523038e-05,4.66873131e-05
5.25,7.8002668e-06,1.75365229e-05,2.31522014e-05,2.921337e-05,3.66522144e-05,4.6101743e-05
5.3,7.79425728e-06,1.74577137e-05,2.29909688e-05,2.89534641e-05,3.62630482e-05,4.5533577e-05
5.35,7.78840375e-06,1.73806037e-05,2.28334635e-05,2.87000351e-05,3.58843657e-05,4.49820536e-05
5.4,7.7827014e-06,1.73051396e-05,2.26795587e-05,2.84528449e-05,3.55157503e-05,4.44464547e-05
5.45,7.77714564e-06,1.723127e-05,2.2529133e-05,2.82116668e-05,3.51568074e-05,4.39261031e-05
5.5,7.77173202e-06,1.71589458e-05,2.23820704e-05,2.79762849e-05,3.48071625e-05,4.34203592e-05
5.55,7.76645628e-06,1.70881196e-05,2.22382602e-05,2.77464937e-05,3.44664602e-05,4.29286185e-05
5.6,7.76131432e-06,1.70187462e-05,2.20975962e-05,2.75220972e-05,3.4134363e-05,4.24503094e-05
5.65,7.75630219e-06,1.69507821e-05,2.19599771e-05,2.73029083e-05,3.381055e-05,4.19848912e-05
5.7,7.75141608e-06,1.68841855e-05,2.18253056e-05,2.70887485e-05,3.34947164e-05,4.15318512e-05
5.75,7.74665233e-06,1.68189161e-05,2.16934886e-05,2.68794475e-05,3.31865716e-05,4.1090704e-05
5.8,7.74200741e-06,1.67549355e-05,2.15644368e-05,2.66748423e-05,3.28858393e-05,4.06609888e-05
5.85,7.73747792e-06,1.66922064e-05,2.14380648e-05,2.64747775e-05,3.25922561e-05,4.02422686e-05
5.9,7.73306057e-06,1.66306932e-05,2.13142905e-05,2.62791041e-05,3.23055711e-05,3.9834128e-05
5.95,7.7287522e-06,1.65703613e-05,2.11930351e-05,2.60876797e-05,3.20255446e-05,3.94361725e-05
6.0,7.72454976e-06,1.65111777e-05,2.10742229e-05,2.59003679e-05,3.17519482e-05,3.90480268e-05
6.05,7.7204503e-06,1.64531106e-05,2.09577814e-05,2.57170382e-05,3.14845638e-05,3.86693337e-05
6.1,7.71645098e-06,1.6396129e-05,2.08436408e-05,2.55375654e-05,3.12231827e-05,3.82997533e-05
6.15,7.71254905e-06,1.63402036e-05,2.07317339e-05,2.53618297e-05,3.09676059e-05,3.79389615e-05
6.2,7.70874186e-06,1.62853056e-05,2.06219964e-05,2.51897158e-05,3.07176426e-05,3.75866497e-05
6.25,7.70502685e-06,1.62314075e-05,2.0514366e-05,2.50211136e-05,3.04731107e-05,3.72425233e-05
6.3,7.70140154e-06,1.61784828e-05,2.04087833e-05,2.4855917e-05,3.02338356e-05,3.69063011e-05
6.35,7.69786355e-06,1.61265058e-05,2.03051905e-05,2.46940244e-05,2.99996501e-05,3.65777149e-05
6.4,7.69441054e-06,1.60754518e-05,2.02035325e-05,2.45353379e-05,2.97703942e-05,3.62565082e-05
6.45,7.6910403e-06,1.60252968e-05,2.01037558e-05,2.43797637e-05,2.95459143e-05,3.59424361e-05
6.5,7.68775065e-06,1.59760178e-05,2.00058091e-05,2.42272115e-05,2.93260632e-05,3.5635264e-05
6.55,7.6845395e-06,1.59275924e-05,1.99096428e-05,2.40775945e-05,2.91106997e-05,3.5334768e-05
6.6,7.68140483e-06,1.58799991e-05,1.98152092e-05,2.39308291e-05,2.88996883e-05,3.50407332e-05
