vds,vb1,vb2,vb3,vb4,vb5,vb6
0.0,1.2820963e-05,4.41796353e-05,6.87734072e-05,8.78011658e-05,0.000101968086,0.000112060123
0.05,1.03017575e-05,4.13189297e-05,6.57889477e-05,8.48264298e-05,9.91069068e-05,0.0001093788
0.1,7.85001509e-06,3.85224045e-05,6.28713626e-05,8.19148729e-05,9.63019296e-05,0.000106745574
0.15,5.5004347e-06,3.57882261e-05,6.00186644e-05,7.90647126e-05,9.35516886e-05,0.000104159299
0.2,3.37455347e-06,3.31146508e-05,5.72289288e-05,7.62742212e-05,9.08547599e-05,0.000101618861
0.25,1.78448097e-06,3.05000373e-05,5.45002893e-05,7.35417187e-05,8.82097573e-05,9.91231728e-05
0.3,9.57550283e-07,2.79428726e-05,5.18309333e-05,7.08655692e-05,8.56153281e-05,9.66711713e-05
0.35,6.1686621e-07,2.54418172e-05,4.92191028e-05,6.8244178e-05,8.30701504e-05,9.42618171e-05
0.4,4.62051147e-07,2.29957845e-05,4.66630955e-05,6.56759919e-05,8.05729318e-05,9.18940909e-05
0.45,3.76350738e-07,2.06040927e-05,4.41612662e-05,6.31595002e-05,7.8122409e-05,8.95669938e-05
0.5,3.21345397e-07,1.82667792e-05,4.17120265e-05,6.06932372e-05,7.5717349e-05,8.72795463e-05
0.55,2.82554951e-07,1.5985297e-05,3.93138414e-05,5.82757836e-05,7.33565501e-05,8.50307894e-05
0.6,2.53481698e-07,1.37641422e-05,3.69652204e-05,5.59057687e-05,7.10388436e-05,8.28197846e-05
0.65,2.30762903e-07,1.16147322e-05,3.46647019e-05,5.35818705e-05,6.8763096e-05,8.06456157e-05
0.7,2.12463548e-07,9.56406956e-06,3.24108274e-05,5.13028147e-05,6.65282105e-05,7.85073896e-05
0.75,1.97379797e-07,7.66912969e-06,3.02020992e-05,4.90673714e-05,6.4333128e-05,7.64042376e-05
0.8,1.84717604e-07,6.0214968e-06,2.80369146e-05,4.68743489e-05,6.21768279e-05,7.43353166e-05
0.85,1.73929113e-07,4.70512844e-06,2.59134614e-05,4.47225847e-05,6.00583281e-05,7.22998102e-05
0.9,1.64622633e-07,3.72951127e-06,2.38295564e-05,4.26109313e-05,5.79766836e-05,7.02969294e-05
0.95,1.56509921e-07,3.03159819e-06,2.17824102e-05,4.05382362e-05,5.59309849e-05,6.83259131e-05
1.0,1.49373731e-07,2.53109483e-06,1.97683479e-05,3.85033132e-05,5.39203544e-05,6.63860284e-05
1.05,1.43046984e-07,2.16404093e-06,1.77827112e-05,3.65049e-05,5.19439419e-05,6.44765699e-05
1.1,1.37398951e-07,1.88714516e-06,1.58207988e-05,3.45415964e-05,5.00009181e-05,6.25968593e-05
1.15,1.32325789e-07,1.67243757e-06,1.38821361e-05,3.26117708e-05,4.80904665e-05,6.07462442e-05
1.2,1.27743925e-07,1.50181494e-06,1.19815639e-05,3.07134184e-05,4.62117716e-05,5.89240962e-05
1.25,1.23585309e-07,1.36331876e-06,1.01650964e-05,2.88439439e-05,4.43640043e-05,5.71298088e-05
1.3,1.1979395e-07,1.24883955e-06,8.51047873e-06,2.69998314e-05,4.25463013e-05,5.53627945e-05
1.35,1.16323344e-07,1.15272887e-06,7.09206394e-06,2.51761616e-05,4.07577369e-05,5.36224809e-05
1.4,1.13134544e-07,1.07095193e-06,5.93872138e-06,2.33659672e-05,3.8997284e-05,5.19083063e-05
1.45,1.10194672e-07,1.00055953e-06,5.02997514e-06,2.15595762e-05,3.72637579e-05,5.02197135e-05
1.5,1.07475785e-07,9.39350936e-07,4.32121934e-06,1.97445724e-05,3.5555735e-05,4.85561431e-05
1.55,1.04953973e-07,8.85653189e-07,3.76614558e-06,1.79080732e-05,3.38714333e-05,4.69170236e-05
1.6,1.0260866e-07,8.38173318e-07,3.32634259e-06,1.60443472e-05,3.22085365e-05,4.53017596e-05
1.65,1.00422041e-07,7.9589708e-07,2.97274433e-06,1.41693756e-05,3.05639333e-05,4.37097155e-05
1.7,9.83786271e-08,7.58018187e-07,2.68412213e-06,1.23344126e-05,2.893334e-05,4.21401938e-05
1.75,9.64648817e-08,7.23887915e-07,2.44510392e-06,1.06190619e-05,2.73107709e-05,4.0592406e-05
1.8,9.46689225e-08,6.92978598e-07,2.24450855e-06,9.09791281e-06,2.56878654e-05,3.90654311e-05
1.85,9.29802754e-08,6.64856774e-07,2.07411614e-06,7.80858393e-06,2.40532103e-05,3.75581582e-05
1.9,9.13896715e-08,6.3916314e-07,1.9278029e-06,6.7475212e-06,2.23921655e-05,3.60692043e-05
1.95,8.98888788e-08,6.15597402e-07,1.80094177e-06,5.88623617e-06,2.06884313e-05,3.45967965e-05
2.0,8.8470561e-08,5.93906673e-07,1.68998728e-06,5.18855891e-06,1.89294813e-05,3.31386032e-05
2.05,8.71281586e-08,5.73876503e-07,1.59218604e-06,4.62051891e-06,1.71174895e-05,3.16914926e-05
2.1,8.58557892e-08,5.5532386e-07,1.50537255e-06,4.15390676e-06,1.52824573e-05,3.02511924e-05
2.15,8.46481617e-08,5.38091595e-07,1.42782351e-06,3.76657566e-06,1.34858389e-05,2.88118303e-05
2.2,8.35005041e-08,5.22044032e-07,1.35815243e-06,3.44155199e-06,1.18038693e-05,2.7365361e-05
2.25,8.24085017e-08,5.07063429e-07,1.29523248e-06,3.16592279e-06,1.02987642e-05,2.59009771e-05
2.3,8.1368243e-08,4.93047118e-07,1.23813928e-06,2.92984923e-06,9.00003495e-06,2.44048265e-05
2.35,8.03761739e-08,4.79905167e-07,1.18610795e-06,2.72578776e-06,7.90567916e-06,2.28607947e-05
2.4,7.94290581e-08,4.6755847e-07,1.1385005e-06,2.54790426e-06,6.99448894e-06,2.12536846e-05
2.45,7.8523942e-08,4.55937169e-07,1.09478084e-06,2.39164245e-06,6.23815662e-06,1.9576204e-05
2.5,7.76581245e-08,4.44979342e-07,1.05449539e-06,2.25340797e-06,5.60869532e-06,1.78391972e-05
2.55,7.6829131e-08,4.34629908e-07,1.01725796e-06,2.13033678e-06,5.08167498e-06,1.60796978e-05
2.6,7.60346896e-08,4.24839711e-07,9.82737727e-07,2.02012462e-06,4.63701931e-06,1.43578608e-05
2.65,7.52727113e-08,4.15564742e-07,9.50649779e-07,1.92090044e-06,4.25870788e-06,1.27398615e-05
2.7,7.45412714e-08,4.06765487e-07,9.20747431e-07,1.83113162e-06,3.93411868e-06,1.12768775e-05
2.75,7.38385943e-08,3.98406364e-07,8.92816078e-07,1.74955242e-06,3.65334083e-06,9.99385807e-06
2.8,7.3163039e-08,3.90455252e-07,8.66668169e-07,1.67510946e-06,3.40857678e-06,8.89145574e-06
2.85,7.25130864e-08,3.82883073e-07,8.42139096e-07,1.60691972e-06,3.19366087e-06,7.95478223e-06
2.9,7.18873286e-08,3.75663448e-07,8.19083808e-07,1.54423798e-06,3.00368517e-06,7.16213322e-06
2.95,7.12844588e-08,3.68772385e-07,7.97374004e-07,1.48643137e-06,2.83471347e-06,6.49079069e-06
3.0,7.07032622e-08,3.6218802e-07,7.76895792e-07,1.43295918e-06,2.6835641e-06,5.91996184e-06
3.05,7.01426083e-08,3.55890383e-07,7.57547731e-07,1.38335693e-06,2.54764501e-06,5.431848e-06
3.1,6.96014436e-08,3.498612e-07,7.39239179e-07,1.33722352e-06,2.42482824e-06,5.0117375e-06
3.15,6.9078785e-08,3.44083715e-07,7.21888903e-07,1.2942109e-06,2.31335376e-06,4.64768312e-06
3.2,6.85737144e-08,3.38542536e-07,7.05423886e-07,1.25401563e-06,2.21175555e-06,4.33005625e-06
3.25,6.80853732e-08,3.332235e-07,6.89778324e-07,1.21637205e-06,2.11880415e-06,4.05110967e-06
3.3,6.76129575e-08,3.28113552e-07,6.74892757e-07,1.18104663e-06,2.03346192e-06,3.80459776e-06
3.35,6.71557138e-08,3.2320064e-07,6.60713324e-07,1.14783326e-06,1.95484775e-06,3.58546479e-06
3.4,6.67129355e-08,3.18473619e-07,6.47191121e-07,1.11654939e-06,1.88220922e-06,3.38959636e-06
3.45,6.62839589e-08,3.13922168e-07,6.34281646e-07,1.0870328e-06,1.81490029e-06,3.21362399e-06
3.5,6.58681599e-08,3.09536715e-07,6.21944316e-07,1.05913882e-06,1.75236347e-06,3.05477245e-06
3.55,6.54649516e-08,3.05308371e-07,6.10142045e-07,1.03273808e-06,1.69411532e-06,2.91074064e-06
3.6,6.50737812e-08,3.0122887e-07,5.98840877e-07,1.00771449e-06,1.63973478e-06,2.77960858e-06
3.65,6.46941277e-08,2.97290515e-07,5.88009661e-07,9.83963679e-07,1.5888535e-06,2.65976432e-06
3.7,6.43254994e-08,2.9348613e-07,5.77619773e-07,9.61391466e-07,1.54114794e-06,2.54984655e-06
3.75,6.39674324e-08,2.89809017e-07,5.67644859e-07,9.3991271e-07,1.49633285e-06,2.44869904e-06
3.8,6.36194881e-08,2.86252916e-07,5.5806062e-07,9.19450239e-07,1.45415582e-06,2.3553344e-06
3.85,6.32812518e-08,2.82811971e-07,5.48844613e-07,8.99933942e-07,1.41439273e-06,2.26890504e-06
3.9,6.29523311e-08,2.79480697e-07,5.39976079e-07,8.81299986e-07,1.37684392e-06,2.18867982e-06
3.95,6.26323542e-08,2.76253954e-07,5.31435787e-07,8.63490128e-07,1.34133098e-06,2.11402506e-06
4.0,6.2320969e-08,2.73126913e-07,5.23205895e-07,8.46451122e-07,1.30769403e-06,2.04438914e-06
4.05,6.20178412e-08,2.70095042e-07,5.15269833e-07,8.30134196e-07,1.27578936e-06,1.97928985e-06
4.1,6.17226539e-08,2.67154077e-07,5.07612183e-07,8.14494592e-07,1.24548749e-06,1.91830394e-06
4.15,6.14351059e-08,2.64300005e-07,5.00218589e-07,7.99491161e-07,1.21667142e-06,1.86105855e-06
4.2,6.11549111e-08,2.61529046e-07,4.93075661e-07,7.85086014e-07,1.18923522e-06,1.80722399e-06
4.25,6.08817972e-08,2.58837636e-07,4.86170899e-07,7.71244199e-07,1.16308273e-06,1.75650776e-06
4.3,6.06155053e-08,2.56222411e-07,4.79492618e-07,7.57933427e-07,1.13812645e-06,1.70864949e-06
4.35,6.03557889e-08,2.53680194e-07,4.73029886e-07,7.45123824e-07,1.11428663e-06,1.66341675e-06
4.4,6.01024131e-08,2.51207983e-07,4.66772461e-07,7.32787708e-07,1.09149042e-06,1.62060135e-06
4.45,5.98551541e-08,2.48802935e-07,4.60710738e-07,7.20899393e-07,1.06967113e-06,1.58001639e-06
4.5,5.96137983e-08,2.46462363e-07,4.54835702e-07,7.09435012e-07,1.04876761e-06,1.54149354e-06
4.55,5.9378142e-08,2.44183719e-07,4.49138883e-07,6.98372363e-07,1.02872369e-06,1.50488088e-06
4.6,5.91479906e-08,2.41964587e-07,4.43612314e-07,6.8769076e-07,1.00948767e-06,1.47004092e-06
4.65,5.89231583e-08,2.39802675e-07,4.38248495e-07,6.77370913e-07,9.91011905e-07,1.43684897e-06
4.7,5.87034674e-08,2.37695809e-07,4.33040361e-07,6.67394806e-07,9.73252407e-07,1.40519166e-06
4.75,5.84887482e-08,2.35641921e-07,4.27981249e-07,6.57745599e-07,9.56168502e-07,1.37496573e-06
4.8,5.82788381e-08,2.33639047e-07,4.23064868e-07,6.48407531e-07,9.39722527e-07,1.34607691e-06
4.85,5.80735816e-08,2.31685317e-07,4.18285279e-07,6.39365838e-07,9.23879558e-07,1.31843899e-06
4.9,5.78728298e-08,2.29778953e-07,4.13636867e-07,6.30606669e-07,9.08607164e-07,1.29197296e-06
4.95,5.767644e-08,2.27918262e-07,4.09114317e-07,6.22117026e-07,8.93875189e-07,1.26660629e-06
5.0,5.74842754e-08,2.26101628e-07,4.047126e-07,6.13884691e-07,8.79655562e-07,1.24227227e-06
5.05,5.72962048e-08,2.24327512e-07,4.00426951e-07,6.05898174e-07,8.65922113e-07,1.21890948e-06
5.1,5.71121025e-08,2.22594446e-07,3.96252849e-07,5.98146657e-07,8.5265042e-07,1.19646121e-06
5.15,5.69318477e-08,2.20901028e-07,3.92186007e-07,5.90619946e-07,8.39817664e-07,1.17487511e-06
5.2,5.67553245e-08,2.19245919e-07,3.88222354e-07,5.83308428e-07,8.27402503e-07,1.15410268e-06
5.25,5.65824216e-08,2.17627841e-07,3.84358023e-07,5.76203028e-07,8.15384949e-07,1.134099e-06
5.3,5.64130319e-08,2.1604557e-07,3.80589336e-07,5.69295175e-07,8.03746268e-07,1.11482238e-06
5.35,5.62470526e-08,2.14497937e-07,3.76912795e-07,5.62576765e-07,7.92468881e-07,1.09623409e-06
5.4,5.60843848e-08,2.12983821e-07,3.73325071e-07,5.56040129e-07,7.81536277e-07,1.07829806e-06
5.45,5.59249334e-08,2.11502152e-07,3.69822992e-07,5.49678008e-07,7.70932934e-07,1.0609807e-06
5.5,5.57686067e-08,2.10051903e-07,3.66403536e-07,5.43483524e-07,7.60644244e-07,1.0442507e-06
5.55,5.56153168e-08,2.08632089e-07,3.63063821e-07,5.37450153e-07,7.5065645e-07,1.0280788e-06
5.6,5.54649786e-08,2.07241769e-07,3.59801097e-07,5.31571705e-07,7.40956581e-07,1.01243764e-06
5.65,5.53175105e-08,2.05880036e-07,3.56612739e-07,5.25842305e-07,7.31532403e-07,9.97301616e-07
5.7,5.51728336e-08,2.04546023e-07,3.5349624e-07,5.20256369e-07,7.2237236e-07,9.8264675e-07
5.75,5.50308719e-08,2.03238897e-07,3.50449206e-07,5.14808587e-07,7.13465534e-07,9.68450545e-07
5.8,5.48915522e-08,2.01957857e-07,3.47469344e-07,5.09493909e-07,7.04801598e-07,9.54691881e-07
5.85,5.47548039e-08,2.00702134e-07,3.44554465e-07,5.04307528e-07,6.96370779e-07,9.4135091e-07
5.9,5.46205587e-08,1.99470989e-07,3.41702472e-07,4.99244866e-07,6.88163818e-07,9.28408965e-07
5.95,5.44887509e-08,1.98263712e-07,3.38911356e-07,4.94301556e-07,6.80171941e-07,9.1584847e-07
6.0,5.43593168e-08,1.97079619e-07,3.36179195e-07,4.89473439e-07,6.72386824e-07,9.03652863e-07
6.05,5.42321952e-08,1.95918052e-07,3.33504145e-07,4.84756544e-07,6.64800569e-07,8.91806527e-07
6.1,5.41073267e-08,1.94778378e-07,3.3088444e-07,4.80147079e-07,6.57405671e-07,8.80294718e-07
6.15,5.3984654e-08,1.93659987e-07,3.28318383e-07,4.75641426e-07,6.50194999e-07,8.6910351e-07
6.2,5.38641218e-08,1.92562293e-07,3.2580435e-07,4.71236124e-07,6.43161771e-07,8.58219736e-07
6.25,5.37456764e-08,1.9148473e-07,3.23340777e-07,4.66927865e-07,6.36299534e-07,8.47630939e-07
6.3,5.36292662e-08,1.90426751e-07,3.20926165e-07,4.62713486e-07,6.29602142e-07,8.37325326e-07
6.35,5.35148408e-08,1.89387831e-07,3.18559074e-07,4.58589957e-07,6.23063741e-07,8.27291719e-07
6.4,5.3402352e-08,1.88367463e-07,3.16238117e-07,4.54554379e-07,6.1667875e-07,8.17519523e-07
6.45,5.32917526e-08,1.87365157e-07,3.13961964e-07,4.50603975e-07,6.10441845e-07,8.07998682e-07
6.5,5.31829974e-08,1.86380441e-07,3.11729332e-07,4.46736082e-07,6.04347946e-07,7.9871965e-07
6.55,5.30760421e-08,1.85412858e-07,3.0953899e-07,4.42948149e-07,5.98392201e-07,7.89673357e-07
6.6,5.29708443e-08,1.84461969e-07,3.07389751e-07,4.39237725e-07,5.92569978e-07,7.80851179e-07
