vds,vb1,vb2,vb3,vb4,vb5,vb6
0.0,6.90869376e-05,0.00024609046,0.000377038768,0.000474462152,0.000543549442,0.000589553084
0.05,5.24335647e-05,0.00022629502,0.000355721335,0.000452875919,0.000522684689,0.000570030855
0.1,3.66946171e-05,0.000207262373,0.000335207436,0.000432050508,0.000502492367,0.000551077214
0.15,2.26458146e-05,0.000188955072,0.000315456823,0.000411950269,0.000482943704,0.000532670194
0.2,1.25305149e-05,0.000171338232,0.000296430986,0.000392541039,0.000464011091,0.000514788676
0.25,7.76676008e-06,0.000154380137,0.000278092931,0.000373789839,0.00044566784,0.000497412228
0.3,5.90867229e-06,0.000138053404,0.000260407276,0.00035566478,0.000427888042,0.000480520982
0.35,5.003776e-06,0.000122336746,0.000243340521,0.000338135144,0.000410646539,0.000464095581
0.4,4.4488704e-06,0.000107218091,0.000226861302,0.000321171568,0.000393918983,0.000448117169
0.45,4.06220613e-06,9.27014612e-05,0.000210940482,0.000304746263,0.000377681949,0.000432567425
0.5,3.77328781e-06,7.88243564e-05,0.000195550923,0.00028883319,0.000361913071,0.00041742863
0.55,3.54791834e-06,6.57025825e-05,0.000180666827,0.000273408147,0.000346591177,0.000402683743
0.6,3.36683446e-06,5.36247864e-05,0.000166262395,0.000258448732,0.000331696393,0.000388316481
0.65,3.21808571e-06,4.31217422e-05,0.000152309416,0.000243934141,0.000317210203,0.000374311395
0.7,3.09375979e-06,3.47114285e-05,0.000138773078,0.00022984476,0.000303115462,0.000360653922
0.75,2.98836797e-06,2.84293009e-05,0.000125605076,0.00021616148,0.000289396331,0.000347330431
0.8,2.89796585e-06,2.38608069e-05,0.000112734468,0.000202864615,0.000276038154,0.000334328226
0.85,2.81963841e-06,2.05119376e-05,0.000100065181,0.000189932179,0.000263027238,0.000321635541
0.9,2.75118148e-06,1.79995414e-05,8.7516336e-05,0.000177337111,0.000250350537,0.000309241489
0.95,2.69089596e-06,1.606432e-05,7.51702862e-05,0.000165042745,0.00023799519,0.000297135996
1.0,2.63745035e-06,1.45362969e-05,6.34713355e-05,0.000152995539,0.000225947861,0.000285309686
1.05,2.58978613e-06,1.33031784e-05,5.31181072e-05,0.000141114317,0.000214193769,0.000273753734
1.1,2.54705112e-06,1.22891525e-05,4.45795187e-05,0.000129278242,0.000202715212,0.000262459676
1.15,2.50855153e-06,1.14417221e-05,3.78495664e-05,0.000117327046,0.000191489291,0.000251419137
1.2,2.47371681e-06,1.07236121e-05,3.26306107e-05,0.000105112528,0.000180484326,0.000240623485
1.25,2.44207348e-06,1.01077319e-05,2.85706849e-05,9.26520747e-05,0.00016965428,0.00023006333
1.3,2.41322538e-06,9.573972e-06,2.53722776e-05,8.03229996e-05,0.000158930501,0.000219727819
1.35,2.38683858e-06,9.10711875e-06,2.2811909e-05,6.88217688e-05,0.000148211171,0.000209603591
1.4,2.36262959e-06,8.69546481e-06,2.07284711e-05,5.87819032e-05,0.000137353267,0.000199673198
1.45,2.34035631e-06,8.32986269e-06,1.90067647e-05,5.04545174e-05,0.000126183554,0.000189912697
1.5,2.31981069e-06,8.00306644e-06,1.75638811e-05,4.37365618e-05,0.000114562593,0.000180287988
1.55,2.30081304e-06,7.70926506e-06,1.63393807e-05,3.83626537e-05,0.000102526452,0.000170749386
1.6,2.28320733e-06,7.44374603e-06,1.52885296e-05,3.40489609e-05,9.04303968e-05,0.000161224208
1.65,2.26685748e-06,7.20264876e-06,1.43776961e-05,3.05531506e-05,7.88981721e-05,0.00015160852
1.7,2.25164428e-06,6.98278126e-06,1.35812083e-05,2.76859606e-05,6.85308779e-05,0.000141763468
1.75,2.23746284e-06,6.78148199e-06,1.2879187e-05,2.53047091e-05,5.96458687e-05,0.000131530519
1.8,2.22422057e-06,6.59651447e-06,1.22560313e-05,2.33029381e-05,5.22535006e-05,0.000120789503
1.85,2.21183539e-06,6.42598602e-06,1.16993462e-05,2.16010675e-05,4.61833547e-05,0.000109569652
1.9,2.20023432e-06,6.26828431e-06,1.11991714e-05,2.01391407e-05,4.12075911e-05,9.81546856e-05
1.95,2.18935225e-06,6.12202747e-06,1.07474192e-05,1.88715036e-05,3.71087143e-05,8.70536587e-05
2.0,2.17913092e-06,5.9860245e-06,1.03374589e-05,1.77629852e-05,3.37039823e-05,7.6801023e-05
2.05,2.16951805e-06,5.85924343e-06,9.96380625e-06,1.67861679e-05,3.08482583e-05,6.77466468e-05
2.1,2.1604666e-06,5.74078576e-06,9.62188834e-06,1.59194301e-05,2.84289839e-05,5.99941499e-05
2.15,2.15193413e-06,5.6298656e-06,9.30786314e-06,1.51455325e-05,2.63595073e-05,5.34677311e-05
2.2,2.14388225e-06,5.52579259e-06,9.01848032e-06,1.44505871e-05,2.45730378e-05,4.80071764e-05
2.25,2.13627617e-06,5.42795787e-06,8.75097226e-06,1.38232964e-05,2.30177947e-05,4.34343903e-05
2.3,2.12908427e-06,5.3358224e-06,8.50296827e-06,1.32543869e-05,2.16533087e-05,3.9586012e-05
2.35,2.12227779e-06,5.24890728e-06,8.27242624e-06,1.27361823e-05,2.04476616e-05,3.63243694e-05
2.4,2.11583046e-06,5.16678558e-06,8.05757799e-06,1.22622788e-05,1.93754405e-05,3.35380071e-05
2.45,2.10971827e-06,5.08907553e-06,7.85688498e-06,1.18272948e-05,1.84162218e-05,3.11383045e-05
2.5,2.10391926e-06,5.01543467e-06,7.66900244e-06,1.14266773e-05,1.75534421e-05,2.90552254e-05
2.55,2.09841326e-06,4.94555496e-06,7.49274989e-06,1.105655e-05,1.67735516e-05,2.7233393e-05
2.6,2.09318173e-06,4.87915857e-06,7.32708691e-06,1.0713593e-05,1.60653746e-05,2.5628837e-05
2.65,2.08820762e-06,4.81599425e-06,7.17109306e-06,1.03949478e-05,1.5419622e-05,2.42064283e-05
2.7,2.08347521e-06,4.75583424e-06,7.02395111e-06,1.00981398e-05,1.48285165e-05,2.29378983e-05
2.75,2.07896996e-06,4.69847163e-06,6.88493302e-06,9.82101697e-06,1.42855025e-05,2.1800325e-05
2.8,2.07467846e-06,4.64371797e-06,6.75338815e-06,9.5616991e-06,1.37850182e-05,2.07749788e-05
2.85,2.07058826e-06,4.59140131e-06,6.62873327e-06,9.31853646e-06,1.33223172e-05,1.98464391e-05
2.9,2.06668785e-06,4.54136441e-06,6.51044408e-06,9.09007576e-06,1.2893326e-05,1.90019169e-05
2.95,2.06296651e-06,4.49346321e-06,6.39804795e-06,8.87503195e-06,1.24945301e-05,1.8230731e-05
3.0,2.05941429e-06,4.44756549e-06,6.29111775e-06,8.67226468e-06,1.21228823e-05,1.75239013e-05
3.05,2.05602193e-06,4.40354967e-06,6.18926652e-06,8.48075857e-06,1.17757284e-05,1.68738299e-05
3.1,2.05278079e-06,4.36130375e-06,6.09214283e-06,8.29960666e-06,1.14507464e-05,1.62740502e-05
3.15,2.04968283e-06,4.32072443e-06,5.99942687e-06,8.12799637e-06,1.11458962e-05,1.57190273e-05
3.2,2.04672052e-06,4.28171624e-06,5.9108269e-06,7.96519755e-06,1.08593788e-05,1.52039986e-05
3.25,2.04388682e-06,4.24419081e-06,5.82607633e-06,7.81055241e-06,1.05896017e-05,1.47248454e-05
3.3,2.04117516e-06,4.20806628e-06,5.74493099e-06,7.66346672e-06,1.03351506e-05,1.42779892e-05
3.35,2.03857937e-06,4.17326664e-06,5.6671669e-06,7.5234024e-06,1.0094765e-05,1.38603071e-05
3.4,2.03609366e-06,4.13972127e-06,5.59257818e-06,7.38987104e-06,9.86731805e-06,1.34690619e-05
3.45,2.03371261e-06,4.10736445e-06,5.52097527e-06,7.26242834e-06,9.6517995e-06,1.31018453e-05
3.5,2.03143111e-06,4.07613495e-06,5.45218338e-06,7.14066923e-06,9.44730099e-06,1.27565303e-05
3.55,2.02924437e-06,4.04597565e-06,5.38604104e-06,7.02422364e-06,9.25300363e-06,1.24312316e-05
3.6,2.02714786e-06,4.01683319e-06,5.32239887e-06,6.91275287e-06,9.06816728e-06,1.21242725e-05
3.65,2.02513735e-06,3.98865769e-06,5.26111851e-06,6.80594628e-06,8.89212137e-06,1.18341571e-05
3.7,2.02320881e-06,3.96140247e-06,5.20207155e-06,6.70351847e-06,8.72425691e-06,1.15595468e-05
3.75,2.02135846e-06,3.93502376e-06,5.14513872e-06,6.6052068e-06,8.56401967e-06,1.12992401e-05
3.8,2.01958274e-06,3.90948053e-06,5.09020906e-06,6.51076915e-06,8.41090411e-06,1.10521558e-05
3.85,2.01787825e-06,3.88473425e-06,5.03717922e-06,6.41998194e-06,8.26444825e-06,1.08173182e-05
3.9,2.01624182e-06,3.86074869e-06,4.98595281e-06,6.33263844e-06,8.12422904e-06,1.05938449e-05
3.95,2.01467041e-06,3.8374898e-06,4.93643983e-06,6.24854717e-06,7.98985837e-06,1.03809358e-05
4.0,2.01316116e-06,3.81492549e-06,4.88855616e-06,6.16753058e-06,7.86097956e-06,1.01778636e-05
4.05,2.01171135e-06,3.79302553e-06,4.84222309e-06,6.08942373e-06,7.73726424e-06,9.98396602e-06
4.1,2.01031843e-06,3.7717614e-06,4.79736685e-06,6.01407326e-06,7.61840962e-06,9.79863869e-06
4.15,2.00897993e-06,3.7511062e-06,4.75391829e-06,5.94133636e-06,7.50413603e-06,9.62132887e-06
4.2,2.00769355e-06,3.73103448e-06,4.71181248e-06,5.8710799e-06,7.39418479e-06,9.45153011e-06
4.25,2.00645707e-06,3.71152221e-06,4.67098843e-06,5.80317959e-06,7.28831625e-06,9.28877759e-06
4.3,2.00526841e-06,3.69254663e-06,4.63138876e-06,5.73751932e-06,7.18630813e-06,9.13264388e-06
4.35,2.00412556e-06,3.6740862e-06,4.59295945e-06,5.67399043e-06,7.0879539e-06,8.98273528e-06
4.4,2.00302663e-06,3.6561205e-06,4.55564961e-06,5.61249117e-06,6.99306149e-06,8.83868859e-06
4.45,2.00196981e-06,3.63863017e-06,4.51941124e-06,5.55292615e-06,6.90145201e-06,8.70016823e-06
4.5,2.00095337e-06,3.62159684e-06,4.48419906e-06,5.49520585e-06,6.81295863e-06,8.56686362e-06
4.55,1.99997566e-06,3.60500307e-06,4.44997026e-06,5.43924616e-06,6.72742563e-06,8.43848698e-06
4.6,1.99903513e-06,3.58883227e-06,4.4166844e-06,5.38496801e-06,6.64470744e-06,8.3147712e-06
4.65,1.99813026e-06,3.57306869e-06,4.38430321e-06,5.33229696e-06,6.56466787e-06,8.19546808e-06
4.7,1.99725963e-06,3.55769734e-06,4.35279044e-06,5.28116292e-06,6.48717934e-06,8.08034669e-06
4.75,1.99642187e-06,3.54270394e-06,4.32211178e-06,5.23149978e-06,6.41212222e-06,7.96919185e-06
4.8,1.99561567e-06,3.52807488e-06,4.29223466e-06,5.18324517e-06,6.33938422e-06,7.86180288e-06
4.85,1.99483977e-06,3.51379723e-06,4.2631282e-06,5.13634017e-06,6.26885987e-06,7.75799233e-06
4.9,1.99409298e-06,3.4998586e-06,4.23476307e-06,5.09072912e-06,6.20044994e-06,7.65758499e-06
4.95,1.99337414e-06,3.48624723e-06,4.20711142e-06,5.04635935e-06,6.13406105e-06,7.56041684e-06
5.0,1.99268216e-06,3.47295185e-06,4.18014675e-06,5.003181e-06,6.06960523e-06,7.4663342e-06
5.05,1.99201597e-06,3.4599617e-06,4.15384386e-06,4.96114686e-06,6.00699952e-06,7.37519294e-06
5.1,1.99137457e-06,3.44726652e-06,4.12817877e-06,4.92021215e-06,5.94616561e-06,7.28685775e-06
5.15,1.99075698e-06,3.43485649e-06,4.10312863e-06,4.8803344e-06,5.88702957e-06,7.20120145e-06
5.2,1.99016227e-06,3.4227222e-06,4.07867168e-06,4.84147331e-06,5.82952149e-06,7.11810443e-06
5.25,1.98958953e-06,3.41085466e-06,4.05478715e-06,4.80359057e-06,5.77357525e-06,7.03745406e-06
5.3,1.98903791e-06,3.39924526e-06,4.03145523e-06,4.76664977e-06,5.71912825e-06,6.95914422e-06
5.35,1.98850658e-06,3.38788576e-06,4.00865703e-06,4.7306163e-06,5.66612118e-06,6.88307479e-06
5.4,1.98799473e-06,3.37676824e-06,3.98637448e-06,4.69545721e-06,5.6144978e-06,6.80915131e-06
5.45,1.9875016e-06,3.36588513e-06,3.96459032e-06,4.66114111e-06,5.56420478e-06,6.7372845e-06
5.5,1.98702645e-06,3.35522916e-06,3.94328807e-06,4.6276381e-06,5.51519147e-06,6.66738999e-06
5.55,1.98656856e-06,3.34479335e-06,3.92245193e-06,4.59491968e-06,5.46740975e-06,6.59938792e-06
5.6,1.98612724e-06,3.334571e-06,3.90206681e-06,4.56295866e-06,5.42081389e-06,6.53320269e-06
5.65,1.98570183e-06,3.32455569e-06,3.88211826e-06,4.53172907e-06,5.37536037e-06,6.46876265e-06
5.7,1.98529169e-06,3.31474122e-06,3.8625924e-06,4.50120614e-06,5.3310078e-06,6.40599987e-06
5.75,1.98489619e-06,3.30512167e-06,3.84347599e-06,4.47136618e-06,5.28771673e-06,6.34484989e-06
5.8,1.98451475e-06,3.29569132e-06,3.82475628e-06,4.44218655e-06,5.24544958e-06,6.2852515e-06
5.85,1.98414679e-06,3.28644467e-06,3.80642107e-06,4.41364561e-06,5.20417052e-06,6.22714653e-06
5.9,1.98379173e-06,3.27737643e-06,3.78845865e-06,4.38572263e-06,5.16384538e-06,6.17047971e-06
5.95,1.98344905e-06,3.26848153e-06,3.77085777e-06,4.35839779e-06,5.12444151e-06,6.11519841e-06
6.0,1.98311823e-06,3.25975506e-06,3.75360764e-06,4.33165208e-06,5.08592777e-06,6.06125257e-06
6.05,1.98279874e-06,3.2511923e-06,3.73669788e-06,4.30546731e-06,5.04827437e-06,6.00859449e-06
6.1,1.98249011e-06,3.2427887e-06,3.72011852e-06,4.27982602e-06,5.01145286e-06,5.9571787e-06
6.15,1.98219186e-06,3.23453988e-06,3.70385996e-06,4.25471147e-06,4.975436e-06,5.90696186e-06
6.2,1.98190352e-06,3.22644161e-06,3.68791299e-06,4.23010762e-06,4.94019775e-06,5.85790261e-06
6.25,1.98162465e-06,3.21848981e-06,3.67226873e-06,4.20599904e-06,4.90571316e-06,5.80996147e-06
6.3,1.98135482e-06,3.21068056e-06,3.65691864e-06,4.18237094e-06,4.87195833e-06,5.76310071e-06
6.35,1.98109359e-06,3.20301004e-06,3.64185449e-06,4.15920909e-06,4.83891038e-06,5.71728431e-06
6.4,1.98084057e-06,3.1954746e-06,3.62706836e-06,4.13649983e-06,4.80654736e-06,5.6724778e-06
6.45,1.98059535e-06,3.18807069e-06,3.61255261e-06,4.11423002e-06,4.77484821e-06,5.62864823e-06
6.5,1.98035755e-06,3.18079491e-06,3.59829989e-06,4.09238703e-06,4.74379273e-06,5.58576404e-06
6.55,1.98012679e-06,3.17364393e-06,3.58430309e-06,4.07095869e-06,4.71336153e-06,5.54379503e-06
6.6,1.9799027e-06,3.16661457e-06,3.57055538e-06,4.04993331e-06,4.68353599e-06,5.50271226e-06
