vds,vb1,vb2,vb3,vb4,vb5,vb6
0.0,6.88110672e-06,2.68660873e-05,4.36836874e-05,5.70680073e-05,6.71275056e-05,7.42505889e-05
0.05,5.58439892e-06,2.5476835e-05,4.23492946e-05,5.5824781e-05,6.59943175e-05,7.32344404e-05
0.1,4.30149062e-06,2.40949011e-05,4.10220123e-05,5.45879087e-05,6.48665253e-05,7.22227268e-05
0.15,3.04700739e-06,2.27202532e-05,3.97017904e-05,5.33573467e-05,6.37440946e-05,7.12154222e-05
0.2,1.87029588e-06,2.13528663e-05,3.83885789e-05,5.21330519e-05,6.26269912e-05,7.02125008e-05
0.25,9.1502205e-07,1.99927253e-05,3.70823287e-05,5.09149814e-05,6.15151813e-05,6.92139373e-05
0.3,3.6609994e-07,1.8639831e-05,3.57829907e-05,4.97030924e-05,6.04086311e-05,6.82197062e-05
0.35,1.52405156e-07,1.72942074e-05,3.44905166e-05,4.84973428e-05,5.93073073e-05,6.72297824e-05
0.4,7.80836049e-08,1.59559153e-05,3.32048584e-05,4.72976904e-05,5.82111766e-05,6.62441409e-05
0.45,4.90776324e-08,1.46250762e-05,3.19259684e-05,4.61040934e-05,5.71202061e-05,6.52627568e-05
0.5,3.57740469e-08,1.33019128e-05,3.06537998e-05,4.49165103e-05,5.6034363e-05,6.42856056e-05
0.55,2.87578736e-08,1.19868254e-05,2.93883059e-05,4.37348996e-05,5.49536148e-05,6.33126626e-05
0.6,2.46293193e-08,1.06805375e-05,2.81294409e-05,4.25592202e-05,5.38779291e-05,6.23439035e-05
0.65,2.19858396e-08,9.38438336e-06,2.68771593e-05,4.1389431e-05,5.28072738e-05,6.13793041e-05
0.7,2.01786808e-08,8.10090042e-06,2.56314168e-05,4.02254911e-05,5.17416168e-05,6.04188404e-05
0.75,1.88780968e-08,6.83506994e-06,2.439217e-05,3.90673595e-05,5.06809264e-05,5.94624884e-05
0.8,1.79030182e-08,5.59690378e-06,2.31593769e-05,3.79149954e-05,4.96251709e-05,5.85102245e-05
0.85,1.71474667e-08,4.40644411e-06,2.1932998e-05,3.67683578e-05,4.85743188e-05,5.75620249e-05
0.9,1.65460268e-08,3.30125608e-06,2.07129967e-05,3.56274055e-05,4.75283386e-05,5.66178662e-05
0.95,1.60564716e-08,2.33987521e-06,1.94993423e-05,3.44920973e-05,4.64871992e-05,5.5677725e-05
1.0,1.56504854e-08,1.58335029e-06,1.82920123e-05,3.33623913e-05,4.54508693e-05,5.47415782e-05
1.05,1.53084507e-08,1.05312985e-06,1.70909991e-05,3.22382455e-05,4.44193177e-05,5.38094025e-05
1.1,1.50163873e-08,7.13937737e-07,1.58963202e-05,3.11196166e-05,4.33925133e-05,5.28811749e-05
1.15,1.47640843e-08,5.05593157e-07,1.47080364e-05,3.0006461e-05,4.23704251e-05,5.19568727e-05
1.2,1.45439211e-08,3.76984214e-07,1.35262868e-05,2.88987335e-05,4.13530219e-05,5.10364729e-05
1.25,1.43501015e-08,2.9509034e-07,1.23513518e-05,2.77963874e-05,4.03402723e-05,5.01199528e-05
1.3,1.41781412e-08,2.40771819e-07,1.11837737e-05,2.66993741e-05,3.93321451e-05,4.92072899e-05
1.35,1.40245191e-08,2.03219574e-07,1.00245882e-05,2.56076423e-05,3.83286086e-05,4.82984615e-05
1.4,1.3886432e-08,1.76248991e-07,8.87576928e-06,2.45211375e-05,3.73296309e-05,4.73934451e-05
1.45,1.37616214e-08,1.56215382e-07,7.74107321e-06,2.34398013e-05,3.63351798e-05,4.64922184e-05
1.5,1.36482476e-08,1.40894504e-07,6.6275687e-06,2.23635701e-05,3.53452224e-05,4.55947587e-05
1.55,1.35447967e-08,1.28880308e-07,5.54810673e-06,2.12923741e-05,3.43597253e-05,4.47010438e-05
1.6,1.34500117e-08,1.19253863e-07,4.52434273e-06,2.02261357e-05,3.33786545e-05,4.38110511e-05
1.65,1.33628404e-08,1.1139596e-07,3.58792745e-06,1.91647681e-05,3.24019746e-05,4.29247581e-05
1.7,1.32823948e-08,1.04877656e-07,2.77508503e-06,1.81081739e-05,3.14296493e-05,4.20421423e-05
1.75,1.32079206e-08,9.9394331e-08,2.11266868e-06,1.70562441e-05,3.04616406e-05,4.11631811e-05
1.8,1.31387729e-08,9.4724775e-08,1.60474509e-06,1.60088583e-05,2.94979087e-05,4.02878517e-05
1.85,1.30743967e-08,9.07051014e-08,1.23246889e-06,1.49658895e-05,2.85384115e-05,3.94161311e-05
1.9,1.30143121e-08,8.72116884e-08,9.65859845e-07,1.39272157e-05,2.7583104e-05,3.85479962e-05
1.95,1.29581017e-08,8.41497622e-08,7.75577649e-07,1.28927484e-05,2.66319375e-05,3.76834234e-05
2.0,1.29054008e-08,8.14455933e-08,6.38394452e-07,1.18624933e-05,2.5684859e-05,3.6822389e-05
2.05,1.28558894e-08,7.90410574e-08,5.37747322e-07,1.08366755e-05,2.47418099e-05,3.59648687e-05
2.1,1.28092853e-08,7.6889776e-08,4.62371307e-07,9.81598652e-06,2.38027251e-05,3.51108377e-05
2.15,1.27653391e-08,7.49543336e-08,4.04720778e-07,8.80205248e-06,2.28675305e-05,3.42602706e-05
2.2,1.27238289e-08,7.32042407e-08,3.59729606e-07,7.79826665e-06,2.19361419e-05,3.34131413e-05
2.25,1.26845573e-08,7.1614421e-08,3.2395677e-07,6.8111281e-06,2.10084614e-05,3.25694225e-05
2.3,1.26473476e-08,7.01640748e-08,2.95027207e-07,5.85201546e-06,2.00843751e-05,3.17290862e-05
2.35,1.26120412e-08,6.88358144e-08,2.7127207e-07,4.93866885e-06,1.91637481e-05,3.08921025e-05
2.4,1.25784957e-08,6.76149984e-08,2.51497231e-07,4.09462097e-06,1.82464203e-05,3.00584404e-05
2.45,1.25465823e-08,6.64892155e-08,2.34832995e-07,3.34465603e-06,1.73322003e-05,2.92280665e-05
2.5,1.25161849e-08,6.54478789e-08,2.2063521e-07,2.70698493e-06,1.64208592e-05,2.84009454e-05
2.55,1.24871978e-08,6.44819057e-08,2.08419195e-07,2.18684098e-06,1.55121239e-05,2.75770386e-05
2.6,1.24595253e-08,6.35834607e-08,1.97814874e-07,1.77607036e-06,1.46056725e-05,2.67563041e-05
2.65,1.24330799e-08,6.27457512e-08,1.88535811e-07,1.45808566e-06,1.37011348e-05,2.59386959e-05
2.7,1.24077819e-08,6.19628603e-08,1.8035751e-07,1.21390007e-06,1.27981058e-05,2.51241626e-05
2.75,1.23835584e-08,6.12296106e-08,1.73101967e-07,1.02615135e-06,1.18961854e-05,2.43126467e-05
2.8,1.23603425e-08,6.05414533e-08,1.66626528e-07,8.80715774e-07,1.0995072e-05,2.3504083e-05
2.85,1.23380726e-08,5.9894376e-08,1.60815727e-07,7.66806665e-07,1.00947552e-05,2.26983969e-05
2.9,1.23166924e-08,5.92848262e-08,1.55575248e-07,6.76445019e-07,9.19587902e-06,2.18955022e-05
2.95,1.22961497e-08,5.87096476e-08,1.50827395e-07,6.03806619e-07,8.30037197e-06,2.10952985e-05
3.0,1.22763964e-08,5.81660268e-08,1.46507656e-07,5.44648946e-07,7.41241636e-06,2.02976675e-05
3.05,1.2257388e-08,5.76514479e-08,1.42562074e-07,4.95867574e-07,6.5396889e-06,1.95024695e-05
3.1,1.22390835e-08,5.71636545e-08,1.3894521e-07,4.5517191e-07,5.69443773e-06,1.87095375e-05
3.15,1.22214445e-08,5.67006173e-08,1.35618556e-07,4.2085429e-07,4.89345559e-06,1.79186713e-05
3.2,1.22044356e-08,5.6260506e-08,1.32549283e-07,3.91627213e-07,4.15589214e-06,1.71296298e-05
3.25,1.21880238e-08,5.58416659e-08,1.29709245e-07,3.66508696e-07,3.49888662e-06,1.63421217e-05
3.3,1.21721783e-08,5.54425974e-08,1.27074189e-07,3.4474118e-07,2.93289893e-06,1.55557957e-05
3.35,1.21568706e-08,5.5061938e-08,1.24623111e-07,3.25733735e-07,2.45938487e-06,1.47702298e-05
3.4,1.21420739e-08,5.46984474e-08,1.22337739e-07,3.0902051e-07,2.0718438e-06,1.39849222e-05
3.45,1.21277631e-08,5.43509939e-08,1.20202106e-07,2.94230552e-07,1.75896381e-06,1.31992885e-05
3.5,1.2113915e-08,5.40185429e-08,1.18202206e-07,2.8106566e-07,1.50787775e-06,1.24126711e-05
3.55,1.21005075e-08,5.37001466e-08,1.163257e-07,2.69283974e-07,1.30638201e-06,1.16243774e-05
3.6,1.20875201e-08,5.33949352e-08,1.14561685e-07,2.58687676e-07,1.14399472e-06,1.08337708e-05
3.65,1.20749336e-08,5.31021092e-08,1.12900488e-07,2.491137e-07,1.01221226e-06,1.00404539e-05
3.7,1.20627298e-08,5.28209323e-08,1.11333499e-07,2.40426628e-07,9.0435472e-07,9.24460014e-06
3.75,1.20508916e-08,5.25507252e-08,1.09853035e-07,2.32513227e-07,8.15262101e-07,8.44749543e-06
3.8,1.20394031e-08,5.22908603e-08,1.08452216e-07,2.25278196e-07,7.40976039e-07,7.65231532e-06
3.85,1.2028249e-08,5.20407569e-08,1.07124863e-07,2.18640835e-07,6.78462144e-07,6.86504378e-06
3.9,1.20174152e-08,5.1799877e-08,1.05865417e-07,2.12532419e-07,6.25386836e-07,6.09520276e-06
3.95,1.20068881e-08,5.15677213e-08,1.04668857e-07,2.06894103e-07,5.79945379e-07,5.35580182e-06
4.0,1.19966551e-08,5.13438258e-08,1.03530642e-07,2.01675246e-07,5.40732176e-07,4.66192447e-06
4.05,1.1986704e-08,5.11277587e-08,1.02446654e-07,1.96832057e-07,5.06643922e-07,4.02795703e-06
4.1,1.19770236e-08,5.09191178e-08,1.01413148e-07,1.923265e-07,4.76807512e-07,3.46443886e-06
4.15,1.19676031e-08,5.07175281e-08,1.00426717e-07,1.88125391e-07,4.50526319e-07,2.97599809e-06
4.2,1.19584322e-08,5.05226391e-08,9.94842467e-08,1.84199671e-07,4.27240006e-07,2.56121741e-06
4.25,1.19495012e-08,5.03341233e-08,9.85828926e-08,1.80523785e-07,4.06494295e-07,2.21410243e-06
4.3,1.19408011e-08,5.01516742e-08,9.77200471e-08,1.77075186e-07,3.87918093e-07,1.92615079e-06
4.35,1.19323229e-08,4.99750045e-08,9.6893317e-08,1.73833909e-07,3.71206046e-07,1.68815914e-06
4.4,1.19240586e-08,4.98038447e-08,9.61005019e-08,1.7078222e-07,3.56105145e-07,1.49140482e-06
4.45,1.19160001e-08,4.9637942e-08,9.53395754e-08,1.67904312e-07,3.42404372e-07,1.3282315e-06
4.5,1.19081399e-08,4.94770585e-08,9.4608668e-08,1.6518606e-07,3.29926626e-07,1.19222328e-06
4.55,1.1900471e-08,4.93209707e-08,9.39060527e-08,1.62614805e-07,3.18522386e-07,1.07815117e-06
4.6,1.18929865e-08,4.9169468e-08,9.32301316e-08,1.60179167e-07,3.0806471e-07,9.81820529e-07
4.65,1.18856799e-08,4.9022352e-08,9.2579424e-08,1.57868897e-07,2.98445247e-07,8.99893225e-07
4.7,1.18785451e-08,4.88794356e-08,9.1952556e-08,1.55674734e-07,2.8957105e-07,8.29720027e-07
4.75,1.18715762e-08,4.87405419e-08,9.13482513e-08,1.53588296e-07,2.81362004e-07,7.69196916e-07
4.8,1.18647674e-08,4.86055043e-08,9.07653224e-08,1.51601977e-07,2.73748742e-07,7.1664786e-07
4.85,1.18581135e-08,4.84741647e-08,9.02026632e-08,1.49708859e-07,2.66670945e-07,6.70731787e-07
4.9,1.18516092e-08,4.8346374e-08,8.96592423e-08,1.47902642e-07,2.60075948e-07,6.30369856e-07
4.95,1.18452498e-08,4.82219907e-08,8.91340965e-08,1.46177569e-07,2.5391759e-07,5.94689054e-07
5.0,1.18390303e-08,4.81008808e-08,8.86263257e-08,1.44528378e-07,2.48155265e-07,5.62978557e-07
5.05,1.18329465e-08,4.79829172e-08,8.81350876e-08,1.42950246e-07,2.42753123e-07,5.34655973e-07
5.1,1.18269938e-08,4.78679793e-08,8.7659593e-08,1.41438742e-07,2.37679413e-07,5.09241165e-07
5.15,1.18211683e-08,4.77559527e-08,8.71991021e-08,1.39989797e-07,2.32905921e-07,4.86335872e-07
5.2,1.18154659e-08,4.76467285e-08,8.67529205e-08,1.38599658e-07,2.28407505e-07,4.65607785e-07
5.25,1.18098828e-08,4.75402033e-08,8.63203956e-08,1.37264866e-07,2.2416169e-07,4.46778032e-07
5.3,1.18044154e-08,4.74362785e-08,8.59009139e-08,1.35982223e-07,2.20148334e-07,4.29611288e-07
5.35,1.17990602e-08,4.73348606e-08,8.54938978e-08,1.34748772e-07,2.16349338e-07,4.13907926e-07
5.4,1.17938138e-08,4.72358602e-08,8.50988032e-08,1.33561772e-07,2.12748395e-07,3.99497737e-07
5.45,1.17886731e-08,4.71391923e-08,8.4715117e-08,1.32418679e-07,2.0933078e-07,3.86234898e-07
5.5,1.17836348e-08,4.70447756e-08,8.43423552e-08,1.31317132e-07,2.06083165e-07,3.73993893e-07
5.55,1.17786961e-08,4.69525329e-08,8.39800605e-08,1.30254932e-07,2.02993459e-07,3.62666216e-07
5.6,1.1773854e-08,4.68623901e-08,8.36278006e-08,1.29230033e-07,2.0005067e-07,3.52157665e-07
5.65,1.17691058e-08,4.67742766e-08,8.32851668e-08,1.28240527e-07,1.97244787e-07,3.42386133e-07
5.7,1.17644489e-08,4.6688125e-08,8.2951772e-08,1.2728463e-07,1.94566673e-07,3.33279779e-07
5.75,1.17598806e-08,4.66038707e-08,8.26272496e-08,1.26360679e-07,1.9200797e-07,3.24775513e-07
5.8,1.17553986e-08,4.65214521e-08,8.23112521e-08,1.25467115e-07,1.89561024e-07,3.16817743e-07
5.85,1.17510004e-08,4.64408099e-08,8.20034498e-08,1.24602479e-07,1.87218811e-07,3.09357318e-07
5.9,1.17466838e-08,4.63618877e-08,8.17035297e-08,1.23765404e-07,1.84974874e-07,3.02350641e-07
5.95,1.17424465e-08,4.62846312e-08,8.14111944e-08,1.22954604e-07,1.82823268e-07,2.95758931e-07
6.0,1.17382865e-08,4.62089884e-08,8.11261614e-08,1.22168875e-07,1.80758512e-07,2.89547584e-07
6.05,1.17342017e-08,4.61349096e-08,8.08481619e-08,1.21407082e-07,1.78775543e-07,2.83685644e-07
6.1,1.17301901e-08,4.6062347e-08,8.05769401e-08,1.20668159e-07,1.76869678e-07,2.78145339e-07
6.15,1.17262497e-08,4.59912546e-08,8.03122524e-08,1.19951101e-07,1.75036582e-07,2.72901695e-07
6.2,1.17223788e-08,4.59215885e-08,8.00538667e-08,1.1925496e-07,1.73272233e-07,2.67932197e-07
6.25,1.17185756e-08,4.58533064e-08,7.98015617e-08,1.18578842e-07,1.71572897e-07,2.632165e-07
6.3,1.17148384e-08,4.57863676e-08,7.95551265e-08,1.17921904e-07,1.69935101e-07,2.58736178e-07
6.35,1.17111654e-08,4.5720733e-08,7.93143595e-08,1.17283347e-07,1.68355613e-07,2.54474508e-07
6.4,1.17075551e-08,4.5656365e-08,7.90790684e-08,1.16662419e-07,1.66831421e-07,2.50416283e-07
6.45,1.17040059e-08,4.55932277e-08,7.88490694e-08,1.16058404e-07,1.65359713e-07,2.46547643e-07
6.5,1.17005163e-08,4.5531286e-08,7.86241868e-08,1.15470627e-07,1.63937863e-07,2.42855934e-07
6.55,1.16970849e-08,4.54705066e-08,7.84042527e-08,1.14898447e-07,1.62563415e-07,2.39329582e-07
6.6,1.16937102e-08,4.54108572e-08,7.81891062e-08,1.14341256e-07,1.61234071e-07,2.35957981e-07
