vds,vb1,vb2,vb3,vb4,vb5,vb6
0.0,2.32404044e-06,8.28017369e-06,1.33245758e-05,1.73780983e-05,2.04685954e-05,2.27028023e-05
0.05,1.93650506e-06,7.87018251e-06,1.29298855e-05,1.70090561e-05,2.013073e-05,2.23983205e-05
0.1,1.55219231e-06,7.46232082e-06,1.25372633e-05,1.66418673e-05,1.97944467e-05,2.20951471e-05
0.15,1.17336243e-06,7.05657839e-06,1.2146695e-05,1.62765197e-05,1.94597353e-05,2.17932746e-05
0.2,8.06926668e-07,6.65294661e-06,1.17581662e-05,1.59130007e-05,1.91265863e-05,2.14926955e-05
0.25,4.74437601e-07,6.25141916e-06,1.13716629e-05,1.55512981e-05,1.87949896e-05,2.11934024e-05
0.3,2.25190288e-07,5.85199303e-06,1.09871709e-05,1.51913996e-05,1.84649357e-05,2.0895388e-05
0.35,9.43603586e-08,5.45467015e-06,1.06046765e-05,1.48332932e-05,1.8136415e-05,2.05986449e-05
0.4,4.33918748e-08,5.05946006e-06,1.02241657e-05,1.44769667e-05,1.78094177e-05,2.03031658e-05
0.45,2.42222291e-08,4.66638429e-06,9.84562499e-06,1.41224082e-05,1.74839345e-05,2.00089436e-05
0.5,1.60878431e-08,4.27548395e-06,9.46904075e-06,1.37696057e-05,1.71599559e-05,1.97159711e-05
0.55,1.21045441e-08,3.88683334e-06,9.09439958e-06,1.34185475e-05,1.68374724e-05,1.94242411e-05
0.6,9.90013055e-09,3.50056479e-06,8.72168818e-06,1.30692217e-05,1.65164748e-05,1.91337466e-05
0.65,8.5561972e-09,3.11691643e-06,8.35089339e-06,1.27216165e-05,1.61969539e-05,1.88444805e-05
0.7,7.67261853e-09,2.73632654e-06,7.98200223e-06,1.23757202e-05,1.58789002e-05,1.85564359e-05
0.75,7.05630923e-09,2.35962625e-06,7.61500191e-06,1.20315211e-05,1.55623048e-05,1.82696058e-05
0.8,6.60580938e-09,1.98843945e-06,7.2498799e-06,1.16890075e-05,1.52471584e-05,1.79839833e-05
0.85,6.26390569e-09,1.62599878e-06,6.88662407e-06,1.13481677e-05,1.49334521e-05,1.76995615e-05
0.9,5.99638207e-09,1.27866019e-06,6.52522285e-06,1.100899e-05,1.46211766e-05,1.74163337e-05
0.95,5.78174037e-09,9.57973995e-07,6.16566554e-06,1.06714626e-05,1.43103231e-05,1.71342929e-05
1.0,5.60589643e-09,6.81085822e-07,5.80794289e-06,1.03355736e-05,1.40008825e-05,1.68534325e-05
1.05,5.45928757e-09,4.6458311e-07,5.45204803e-06,1.00013111e-05,1.36928459e-05,1.65737457e-05
1.1,5.3352181e-09,3.12919344e-07,5.0979781e-06,9.66866283e-06,1.33862043e-05,1.62952258e-05
1.15,5.22887286e-09,2.15176326e-07,4.7457372e-06,9.33761646e-06,1.30809488e-05,1.60178663e-05
1.2,5.13670717e-09,1.54370667e-07,4.39534166e-06,9.00815933e-06,1.27770704e-05,1.57416604e-05
1.25,5.05605755e-09,1.16302159e-07,4.04682972e-06,8.68027838e-06,1.24745602e-05,1.54666016e-05
1.3,4.98488592e-09,9.17428885e-08,3.70027944e-06,8.35396011e-06,1.21734091e-05,1.51926833e-05
1.35,4.92160732e-09,7.52715113e-08,3.35584275e-06,8.02919037e-06,1.18736082e-05,1.49198989e-05
1.4,4.86497128e-09,6.37803044e-08,3.01381028e-06,7.70595424e-06,1.15751484e-05,1.46482419e-05
1.45,4.81397827e-09,5.54662436e-08,2.67473577e-06,7.38423584e-06,1.12780204e-05,1.43777059e-05
1.5,4.76782e-09,4.92538145e-08,2.33967082e-06,7.06401802e-06,1.09822149e-05,1.41082842e-05
1.55,4.72583581e-09,4.44798565e-08,2.01058863e-06,6.74528214e-06,1.06877225e-05,1.38399704e-05
1.6,4.68748048e-09,4.07214862e-08,1.69106841e-06,6.4280076e-06,1.03945336e-05,1.3572758e-05
1.65,4.65230011e-09,3.77002872e-08,1.38714738e-06,6.11217146e-06,1.01026382e-05,1.33066404e-05
1.7,4.61991372e-09,3.52274801e-08,1.10772388e-06,5.79774793e-06,9.81202634e-06,1.30416113e-05
1.75,4.5899992e-09,3.31715965e-08,8.63221187e-07,5.48470787e-06,9.52268736e-06,1.2777664e-05
1.8,4.56228232e-09,3.14388466e-08,6.6183895e-07,5.17301835e-06,9.23461036e-06,1.25147919e-05
1.85,4.53652814e-09,2.99608546e-08,5.05600766e-07,4.86264261e-06,8.94778383e-06,1.22529886e-05
1.9,4.51253424e-09,2.86867905e-08,3.89828616e-07,4.55354081e-06,8.6621956e-06,1.19922472e-05
1.95,4.49012522e-09,2.75781985e-08,3.06180735e-07,4.24567267e-06,8.37783268e-06,1.17325612e-05
2.0,4.46914833e-09,2.66055202e-08,2.46094935e-07,3.93900415e-06,8.09468104e-06,1.14739237e-05
2.05,4.44946996e-09,2.57457076e-08,2.02588236e-07,3.63352205e-06,7.81272539e-06,1.12163277e-05
2.1,4.43097269e-09,2.49805537e-08,1.70580912e-07,3.32926455e-06,7.5319489e-06,1.09597664e-05
2.15,4.41355291e-09,2.42955048e-08,1.46570905e-07,3.026382e-06,7.25233276e-06,1.07042325e-05
2.2,4.39711882e-09,2.36788007e-08,1.28190688e-07,2.72525311e-06,6.97385578e-06,1.04497186e-05
2.25,4.38158885e-09,2.3120844e-08,1.13840703e-07,2.42669461e-06,6.69649375e-06,1.01962172e-05
2.3,4.36689019e-09,2.26137313e-08,1.02429851e-07,2.13230744e-06,6.42021871e-06,9.94372039e-06
2.35,4.3529577e-09,2.21508991e-08,9.32028499e-08,1.84496304e-06,6.14499805e-06,9.6922201e-06
2.4,4.3397329e-09,2.17268548e-08,8.56279584e-08,1.56928662e-06,5.87079333e-06,9.44170774e-06
2.45,4.32716313e-09,2.13369686e-08,7.93242007e-08,1.31171813e-06,5.59755893e-06,9.19217431e-06
2.5,4.31520086e-09,2.09773128e-08,7.4013874e-08,1.07956682e-06,5.32524031e-06,8.94361028e-06
2.55,4.30380306e-09,2.06445339e-08,6.94911881e-08,8.7896226e-07,5.05377214e-06,8.69600542e-06
2.6,4.29293069e-09,2.0335753e-08,6.56012553e-08,7.12736925e-07,4.78307623e-06,8.44934872e-06
2.65,4.28254824e-09,2.00484849e-08,6.22257968e-08,5.79716313e-07,4.51305972e-06,8.20362819e-06
2.7,4.27262335e-09,1.97805736e-08,5.92732663e-08,4.7574144e-07,4.24361419e-06,7.9588307e-06
2.75,4.26312644e-09,1.95301399e-08,5.6671919e-08,3.95407144e-07,3.97461748e-06,7.71494166e-06
2.8,4.25403046e-09,1.92955389e-08,5.43648766e-08,3.33442759e-07,3.70594113e-06,7.47194479e-06
2.85,4.24531057e-09,1.90753244e-08,5.23065639e-08,2.85393171e-07,3.43746965e-06,7.22982166e-06
2.9,4.23694396e-09,1.88682203e-08,5.04601006e-08,2.47773983e-07,3.16914194e-06,6.98855129e-06
2.95,4.22890965e-09,1.86730962e-08,4.87953684e-08,2.17969561e-07,2.90103253e-06,6.74810953e-06
3.0,4.22118827e-09,1.84889474e-08,4.72875625e-08,1.94053647e-07,2.63349738e-06,6.50846832e-06
3.05,4.21376194e-09,1.83148781e-08,4.59160924e-08,1.74616001e-07,2.36741089e-06,6.26959481e-06
3.1,4.20661411e-09,1.81500866e-08,4.46637411e-08,1.58622051e-07,2.10449854e-06,6.03145022e-06
3.15,4.19972947e-09,1.79938542e-08,4.35160132e-08,1.45307729e-07,1.84769629e-06,5.79398843e-06
3.2,4.1930938e-09,1.78455338e-08,4.24606277e-08,1.34103483e-07,1.60133333e-06,5.55715429e-06
3.25,4.18669388e-09,1.7704542e-08,4.14871169e-08,1.24580242e-07,1.37082428e-06,5.32088148e-06
3.3,4.18051743e-09,1.7570351e-08,4.05865096e-08,1.16411152e-07,1.16167936e-06,5.08509003e-06
3.35,4.174553e-09,1.74424824e-08,3.97510764e-08,1.09344431e-07,9.78105651e-07,4.84968338e-06
3.4,4.16878991e-09,1.73205014e-08,3.89741257e-08,1.03183998e-07,8.21921552e-07,4.61454518e-06
3.45,4.16321819e-09,1.72040122e-08,3.8249837e-08,9.77755378e-08,6.92373041e-07,4.37953616e-06
3.5,4.15782852e-09,1.70926536e-08,3.75731259e-08,9.29963805e-08,5.8679411e-07,4.14449179e-06
3.55,4.15261216e-09,1.6986095e-08,3.69395326e-08,8.87480828e-08,5.01583451e-07,3.90922235e-06
3.6,4.14756095e-09,1.6884034e-08,3.63451303e-08,8.49509331e-08,4.33019936e-07,3.67351836e-06
3.65,4.1426672e-09,1.67861926e-08,3.57864483e-08,8.15398414e-08,3.77741071e-07,3.43716663e-06
3.7,4.13792373e-09,1.66923155e-08,3.5260409e-08,7.84612354e-08,3.32931311e-07,3.1999858e-06
3.75,4.13332377e-09,1.66021673e-08,3.47642741e-08,7.56706933e-08,2.96334689e-07,2.96189484e-06
3.8,4.12886093e-09,1.65155309e-08,3.42955994e-08,7.31311237e-08,2.66187247e-07,2.72303201e-06
3.85,4.12452924e-09,1.64322059e-08,3.38521972e-08,7.08113519e-08,2.41126226e-07,2.4839401e-06
3.9,4.12032303e-09,1.63520065e-08,3.34321034e-08,6.86850147e-08,2.20103137e-07,2.24581603e-06
3.95,4.11623697e-09,1.62747607e-08,3.30335503e-08,6.67296885e-08,2.0231053e-07,2.01077598e-06
4.0,4.11226603e-09,1.6200309e-08,3.26549426e-08,6.49261963e-08,1.87124024e-07,1.78201103e-06
4.05,4.10840546e-09,1.61285028e-08,3.22948372e-08,6.32580534e-08,1.74057882e-07,1.56364989e-06
4.1,4.10465076e-09,1.60592041e-08,3.19519256e-08,6.1711021e-08,1.62731511e-07,1.36019942e-06
4.15,4.10099767e-09,1.59922842e-08,3.16250185e-08,6.02727433e-08,1.52844388e-07,1.17565742e-06
4.2,4.09744216e-09,1.59276233e-08,3.13130332e-08,5.89324528e-08,1.44157318e-07,1.01265372e-06
4.25,4.0939804e-09,1.58651091e-08,3.10149814e-08,5.76807274e-08,1.36478396e-07,8.72014761e-07
4.3,4.09060878e-09,1.58046368e-08,3.07299594e-08,5.65092906e-08,1.29652447e-07,7.52888567e-07
4.35,4.08732385e-09,1.57461084e-08,3.04571396e-08,5.54108452e-08,1.23553043e-07,6.53252552e-07
4.4,4.08412235e-09,1.5689432e-08,3.01957622e-08,5.43789353e-08,1.18076419e-07,5.70509923e-07
4.45,4.08100117e-09,1.56345212e-08,2.99451289e-08,5.34078303e-08,1.13136816e-07,5.01967186e-07
4.5,4.07795736e-09,1.55812952e-08,2.97045966e-08,5.24924275e-08,1.08662881e-07,4.45126926e-07
4.55,4.07498811e-09,1.55296778e-08,2.94735721e-08,5.16281695e-08,1.0459487e-07,3.97821954e-07
4.6,4.07209075e-09,1.54795974e-08,2.92515075e-08,5.08109745e-08,1.00882459e-07,3.58245888e-07
4.65,4.06926271e-09,1.54309867e-08,2.90378958e-08,5.00371768e-08,9.74830137e-08,3.24928935e-07
4.7,4.06650158e-09,1.5383782e-08,2.88322674e-08,4.93034754e-08,9.43602216e-08,2.9669129e-07
4.75,4.06380504e-09,1.53379236e-08,2.86341866e-08,4.86068909e-08,9.14829935e-08,2.72592136e-07
4.8,4.06117086e-09,1.52933547e-08,2.84432487e-08,4.79447272e-08,8.88245835e-08,2.51882669e-07
4.85,4.05859695e-09,1.5250022e-08,2.8259077e-08,4.73145397e-08,8.6361876e-08,2.33966209e-07
4.9,4.05608128e-09,1.52078749e-08,2.80813209e-08,4.67141064e-08,8.40748053e-08,2.18365764e-07
4.95,4.05362192e-09,1.51668655e-08,2.79096535e-08,4.61414038e-08,8.19458812e-08,2.04698288e-07
5.0,4.05121703e-09,1.51269486e-08,2.77437693e-08,4.55945853e-08,7.99597979e-08,1.92654537e-07
5.05,4.04886484e-09,1.50880813e-08,2.75833832e-08,4.50719624e-08,7.81031111e-08,1.81983393e-07
5.1,4.04656366e-09,1.50502229e-08,2.74282281e-08,4.45719888e-08,7.63639697e-08,1.72479708e-07
5.15,4.04431187e-09,1.50133346e-08,2.7278054e-08,4.40932453e-08,7.47318912e-08,1.63974861e-07
5.2,4.04210792e-09,1.49773799e-08,2.71326265e-08,4.36344276e-08,7.31975741e-08,1.56329416e-07
5.25,4.03995033e-09,1.49423239e-08,2.69917255e-08,4.31943346e-08,7.1752739e-08,1.49427381e-07
5.3,4.03783766e-09,1.49081334e-08,2.68551443e-08,4.2771859e-08,7.03899951e-08,1.4317171e-07
5.35,4.03576856e-09,1.48747768e-08,2.67226885e-08,4.2365978e-08,6.91027257e-08,1.37480754e-07
5.4,4.0337417e-09,1.48422242e-08,2.65941752e-08,4.19757456e-08,6.7884992e-08,1.32285448e-07
5.45,4.03175582e-09,1.4810447e-08,2.6469432e-08,4.16002856e-08,6.67314494e-08,1.27527068e-07
5.5,4.02980971e-09,1.47794178e-08,2.63482966e-08,4.12387854e-08,6.56372764e-08,1.2315544e-07
5.55,4.02790222e-09,1.47491107e-08,2.62306155e-08,4.08904902e-08,6.45981133e-08,1.19127488e-07
5.6,4.02603221e-09,1.47195009e-08,2.61162439e-08,4.05546982e-08,6.36100091e-08,1.15406066e-07
5.65,4.02419861e-09,1.46905646e-08,2.60050451e-08,4.02307559e-08,6.26693753e-08,1.11959005e-07
5.7,4.02240039e-09,1.46622793e-08,2.58968895e-08,3.99180543e-08,6.17729459e-08,1.08758327e-07
5.75,4.02063654e-09,1.46346232e-08,2.57916546e-08,3.96160248e-08,6.09177428e-08,1.05779608e-07
5.8,4.01890612e-09,1.46075758e-08,2.56892245e-08,3.93241364e-08,6.01010448e-08,1.03001445e-07
5.85,4.01720818e-09,1.45811172e-08,2.5589489e-08,3.90418923e-08,5.93203611e-08,1.00405015e-07
5.9,4.01554185e-09,1.45552285e-08,2.54923439e-08,3.87688273e-08,5.85734079e-08,9.79737109e-08
5.95,4.01390626e-09,1.45298915e-08,2.539769e-08,3.85045056e-08,5.78580873e-08,9.5692828e-08
6.0,4.01230058e-09,1.4505089e-08,2.53054333e-08,3.8248518e-08,5.71724692e-08,9.35493095e-08
6.05,4.01072402e-09,1.44808041e-08,2.52154843e-08,3.80004806e-08,5.6514775e-08,9.15315257e-08
6.1,4.0091758e-09,1.4457021e-08,2.51277579e-08,3.77600323e-08,5.58833633e-08,8.96290892e-08
6.15,4.00765519e-09,1.44337243e-08,2.50421734e-08,3.75268333e-08,5.52767171e-08,8.78326966e-08
6.2,4.00616145e-09,1.44108993e-08,2.49586534e-08,3.73005639e-08,5.46934321e-08,8.61339941e-08
6.25,4.00469391e-09,1.43885319e-08,2.48771248e-08,3.70809226e-08,5.4132207e-08,8.45254616e-08
6.3,4.00325188e-09,1.43666086e-08,2.47975173e-08,3.6867625e-08,5.35918339e-08,8.30003132e-08
6.35,4.00183473e-09,1.43451162e-08,2.47197643e-08,3.66604028e-08,5.30711904e-08,8.1552412e-08
6.4,4.00044182e-09,1.43240423e-08,2.46438021e-08,3.64590022e-08,5.25692323e-08,8.01761952e-08
6.45,3.99907255e-09,1.43033749e-08,2.45695697e-08,3.62631835e-08,5.20849867e-08,7.88666101e-08
6.5,3.99772634e-09,1.42831023e-08,2.44970092e-08,3.60727198e-08,5.16175464e-08,7.76190579e-08
6.55,3.99640262e-09,1.42632133e-08,2.44260648e-08,3.58873963e-08,5.11660643e-08,7.64293448e-08
6.6,3.99510083e-09,1.42436974e-08,2.43566835e-08,3.57070095e-08,5.07297486e-08,7.52936389e-08
