vds (V),vgs =0.8,vgs =1.3,vgs =1.8,vgs =2.3,vgs =2.8,vgs =3.3
0.0,-0.0,-0.0,-0.0,-0.0,-0.0,-0.0
0.05,7.45110275e-07,4.30992195e-06,6.73573635e-06,8.40973068e-06,9.61747374e-06,1.05177665e-05
0.1,1.14787859e-06,7.99557834e-06,1.28149982e-05,1.61814243e-05,1.86313228e-05,2.04703056e-05
0.15,1.3378652e-06,1.1116265e-05,1.82889138e-05,2.33574517e-05,2.70764632e-05,2.9886548e-05
0.2,1.44062798e-06,1.37238871e-05,2.32031543e-05,2.9976375e-05,3.49850972e-05,3.87934431e-05
0.25,1.51339311e-06,1.58640641e-05,2.75984142e-05,3.60732842e-05,4.23869381e-05,4.72161098e-05
0.3,1.57398124e-06,1.75778465e-05,3.15106613e-05,4.16800483e-05,4.93093966e-05,5.51779678e-05
0.35,1.62850042e-06,1.89066912e-05,3.49710733e-05,4.68254625e-05,5.57777249e-05,6.27008481e-05
0.4,1.67954465e-06,1.99038903e-05,3.80055631e-05,5.1535257e-05,6.18151125e-05,6.98050819e-05
0.45,1.72842228e-06,2.06426046e-05,4.06339946e-05,5.58319e-05,6.74427175e-05,7.65095639e-05
0.5,1.77587873e-06,2.12014099e-05,4.28702151e-05,5.97340983e-05,7.26796093e-05,8.28317845e-05
0.55,1.82237721e-06,2.1642574e-05,4.47264474e-05,6.32558909e-05,7.75425798e-05,8.87878199e-05
0.6,1.86822461e-06,2.20069087e-05,4.62257015e-05,6.64053963e-05,8.20457579e-05,9.43922632e-05
0.65,1.91363432e-06,2.23194529e-05,4.74142846e-05,6.91840043e-05,8.61999379e-05,9.96580688e-05
0.7,1.95876051e-06,2.25956399e-05,4.83568809e-05,7.15885247e-05,9.00115486e-05,0.000104596268
0.75,2.00371796e-06,2.28452948e-05,4.91178383e-05,7.36200066e-05,9.34813539e-05,0.000109215497
0.8,2.04859432e-06,2.30749214e-05,4.97484587e-05,7.52976946e-05,9.66035673e-05,0.000113521265
0.85,2.0934579e-06,2.32889901e-05,5.02853103e-05,7.66655974e-05,9.93673135e-05,0.000117514918
0.9,2.13836285e-06,2.34906799e-05,5.07534419e-05,7.77828289e-05,0.000101763357,0.000121192432
0.95,2.18335277e-06,2.36823187e-05,5.11699862e-05,7.87076679e-05,0.000103796107,0.000124543646
1.0,2.22846319e-06,2.38656557e-05,5.15468482e-05,7.9488099e-05,0.00010549299,0.000127553489
1.05,2.27372338e-06,2.40420348e-05,5.18924873e-05,8.01601527e-05,0.000106901615,0.000130207452
1.1,2.3191577e-06,2.42125084e-05,5.22130572e-05,8.07498866e-05,0.000108077159,0.000132501641
1.15,2.36478658e-06,2.43779148e-05,5.25131378e-05,8.12760102e-05,0.000109070698,0.000134452166
1.2,2.41062728e-06,2.45389316e-05,5.27962094e-05,8.17520636e-05,0.000109923908,0.000136095888
1.25,2.45669449e-06,2.46961139e-05,5.30649672e-05,8.21879924e-05,0.000110668687,0.000137481615
1.3,2.50300078e-06,2.48499215e-05,5.33215347e-05,8.25912293e-05,0.000111328816,0.000138659044
1.35,2.54955699e-06,2.50007396e-05,5.35676102e-05,8.29674278e-05,0.000111921934,0.000139671729
1.4,2.59637251e-06,2.51488935e-05,5.38045708e-05,8.33209617e-05,0.000112461204,0.000140554796
1.45,2.64345558e-06,2.52946608e-05,5.4033547e-05,8.36552685e-05,0.00011295656,0.000141335427
1.5,2.69081349e-06,2.54382796e-05,5.42554768e-05,8.39730892e-05,0.000113415606,0.000142034314
1.55,2.73845281e-06,2.55799564e-05,5.44711468e-05,8.42766391e-05,0.000113844245,0.000142667182
1.6,2.78637955e-06,2.5719871e-05,5.46812222e-05,8.45677299e-05,0.000114247124,0.000143246049
1.65,2.83459941e-06,2.58581814e-05,5.48862702e-05,8.48478595e-05,0.000114627951,0.000143780191
1.7,2.88311792e-06,2.59950275e-05,5.50867787e-05,8.51182792e-05,0.000114989723,0.000144276852
1.75,2.93194068e-06,2.61305343e-05,5.528317e-05,8.53800437e-05,0.000115334888,0.000144741758
1.8,2.98107354e-06,2.62648146e-05,5.54758125e-05,8.56340492e-05,0.000115665469,0.000145179489
1.85,3.03052283e-06,2.63979718e-05,5.56650299e-05,8.58810636e-05,0.000115983152,0.00014559375
1.9,3.08029561e-06,2.65301018e-05,5.58511092e-05,8.61217496e-05,0.000116289356,0.000145987574
1.95,3.13039987e-06,2.66612952e-05,5.6034307e-05,8.63566832e-05,0.000116585288,0.000146363463
2.0,3.18084485e-06,2.67916396e-05,5.62148553e-05,8.65863689e-05,0.000116871976,0.000146723509
2.05,3.2316413e-06,2.69212213e-05,5.63929669e-05,8.68112519e-05,0.00011715031,0.000147069466
2.1,3.28280177e-06,2.70501274e-05,5.65688399e-05,8.70317288e-05,0.000117421058,0.000147402828
2.15,3.33434093e-06,2.71784476e-05,5.67426619e-05,8.72481566e-05,0.000117684894,0.000147724866
2.2,3.38627591e-06,2.73062767e-05,5.69146148e-05,8.74608605e-05,0.000117942412,0.000148036679
2.25,3.43862669e-06,2.74337157e-05,5.70848782e-05,8.76701415e-05,0.000118194138,0.000148339217
2.3,3.4914164e-06,2.75608746e-05,5.72536342e-05,8.78762831e-05,0.000118440545,0.00014863331
2.35,3.5446718e-06,2.76878738e-05,5.74210707e-05,8.80795576e-05,0.000118682063,0.000148919688
2.4,3.59842363e-06,2.78148467e-05,5.7587386e-05,8.82802325e-05,0.000118919089,0.000149198999
2.45,3.65270708e-06,2.79419415e-05,5.77527922e-05,8.84785765e-05,0.000119151994,0.000149471826
2.5,3.70756225e-06,2.80693231e-05,5.79175199e-05,8.86748659e-05,0.000119381136,0.000149738694
2.55,3.76303459e-06,2.81971756e-05,5.80818216e-05,8.88693898e-05,0.000119606863,0.00015000009
2.6,3.81917542e-06,2.83257044e-05,5.82459762e-05,8.90624572e-05,0.000119829524,0.000150256468
2.65,3.87604245e-06,2.84551382e-05,5.84102929e-05,8.9254402e-05,0.000120049479,0.000150508262
2.7,3.93370027e-06,2.85857312e-05,5.85751155e-05,8.94455898e-05,0.0001202671,0.000150755899
2.75,3.99222094e-06,2.87177657e-05,5.87408264e-05,8.96364235e-05,0.000120482788,0.000150999802
2.8,4.0516845e-06,2.88515539e-05,5.89078507e-05,8.98273498e-05,0.000120696975,0.000151240407
2.85,4.1121796e-06,2.89874402e-05,5.90766605e-05,9.0018865e-05,0.000120910132,0.000151478169
2.9,4.17380404e-06,2.91258039e-05,5.92477793e-05,9.02115214e-05,0.000121122781,0.000151713572
2.95,4.23666538e-06,2.92670608e-05,5.94217857e-05,9.04059331e-05,0.000121335499,0.00015194714
3.0,4.30088155e-06,2.94116661e-05,5.95993182e-05,9.06027828e-05,0.000121548927,0.000152179448
3.05,4.36658147e-06,2.95601159e-05,5.97810787e-05,9.08028275e-05,0.000121763783,0.000152411129
3.1,4.43390564e-06,2.97129502e-05,5.99678375e-05,9.10069049e-05,0.00012198086,0.000152642885
3.15,4.50300679e-06,2.98707544e-05,6.01604364e-05,9.12159393e-05,0.000122201046,0.0001528755
3.2,4.57405047e-06,3.00341618e-05,6.03597938e-05,9.14309482e-05,0.000122425323,0.000153109844
3.25,4.64721571e-06,3.02038554e-05,6.05669078e-05,9.1653048e-05,0.00012265478,0.000153346889
3.3,4.7226956e-06,3.03805702e-05,6.07828606e-05,9.18834602e-05,0.000122890617,0.000153587718
