vds,vb1,vb2,vb3,vb4,vb5,vb6
0.0,8.34303168e-06,7.64867412e-05,0.000125450096,0.000164169493,0.000194585969,0.00021917089
-0.05,4.59499487e-06,7.12171729e-05,0.000120328357,0.000159297773,0.00018998868,0.000214839888
-0.1,1.67706318e-06,6.60651257e-05,0.000115298942,0.000154500205,0.000185452105,0.000210559479
-0.15,5.26241059e-07,6.10278429e-05,0.000110359977,0.000149775525,0.000180975355,0.000206329011
-0.2,2.91610638e-07,5.61027811e-05,0.000105509631,0.000145122495,0.000176557553,0.000202147842
-0.25,2.3192653e-07,5.12876891e-05,0.000100746118,0.000140539893,0.000172197835,0.000198015336
-0.3,2.07464524e-07,4.65807533e-05,9.60676935e-05,0.00013602652,0.000167895349,0.000193930864
-0.35,1.93482912e-07,4.19808645e-05,9.14726595e-05,0.000131581199,0.000163649253,0.000189893806
-0.4,1.83876272e-07,3.74881361e-05,8.69593665e-05,0.000127202769,0.000159458719,0.000185903549
-0.45,1.76601292e-07,3.31049453e-05,8.25262171e-05,0.000122890094,0.000155322927,0.000181959486
-0.5,1.70788402e-07,2.88381224e-05,7.81716714e-05,0.000118642053,0.000151241073,0.000178061018
-0.55,1.65992879e-07,2.47036787e-05,7.38942553e-05,0.00011445755,0.000147212359,0.000174207553
-0.6,1.61954107e-07,2.07369578e-05,6.96925721e-05,0.000110335508,0.000143236003,0.000170398506
-0.65,1.58503614e-07,1.70122774e-05,6.55653198e-05,0.000106274871,0.000139311231,0.000166633298
-0.7,1.55524603e-07,1.36681055e-05,6.15113183e-05,0.000102274605,0.000135437282,0.000162911359
-0.75,1.52931937e-07,1.08945195e-05,5.75295517e-05,9.83336954e-05,0.000131613407,0.000159232124
-0.8,1.50661238e-07,8.81489106e-06,5.36192374e-05,9.44511523e-05,0.000127838867,0.000155595035
-0.85,1.48662463e-07,7.36409613e-06,4.97799404e-05,9.06260059e-05,0.000124112935,0.000151999544
-0.9,1.46895869e-07,6.35892486e-06,4.60117699e-05,8.68573085e-05,0.000120434896,0.000148445107
-0.95,1.45329354e-07,5.63490541e-06,4.23157273e-05,8.3144134e-05,0.000116804046,0.000144931189
-1.0,1.4393662e-07,5.08750598e-06,3.86943364e-05,7.94855769e-05,0.000113219691,0.000141457261
-1.05,1.42695871e-07,4.6563789e-06,3.51528123e-05,7.58807514e-05,0.000109681149,0.000138022803
-1.1,1.41588861e-07,4.30613928e-06,3.17012308e-05,7.23287891e-05,0.000106187748,0.000134627299
-1.15,1.4060018e-07,4.01490574e-06,2.83583921e-05,6.88288348e-05,0.000102738822,0.000131270244
-1.2,1.39716715e-07,3.76835376e-06,2.51578092e-05,6.53800397e-05,9.93337174e-05,0.000127951137
-1.25,1.3892723e-07,3.55663086e-06,2.21537704e-05,6.19815499e-05,9.59717827e-05,0.000124669483
-1.3,1.38222035e-07,3.3726835e-06,1.94190299e-05,5.86324861e-05,9.26523715e-05,0.000121424797
-1.35,1.37592731e-07,3.21129762e-06,1.70230161e-05,5.53319114e-05,8.93748371e-05,0.000118216596
-1.4,1.37031996e-07,3.06851818e-06,1.49987322e-05,5.20787786e-05,8.61385271e-05,0.000115044403
-1.45,1.36533419e-07,2.94128108e-06,1.33294998e-05,4.8871854e-05,8.29427768e-05,0.000111907745
-1.5,1.36091362e-07,2.82717015e-06,1.19656799e-05,4.5709622e-05,7.97868977e-05,0.000108806155
-1.55,1.35700845e-07,2.72425144e-06,1.08489662e-05,4.25902288e-05,7.66701616e-05,0.000105739164
-1.6,1.35357455e-07,2.63095674e-06,9.92683499e-06,3.95116729e-05,7.35917772e-05,0.000102706304
-1.65,1.35057265e-07,2.54600001e-06,9.15697233e-06,3.64728281e-05,7.05508532e-05,9.97071047e-05
-1.7,1.34796771e-07,2.46831595e-06,8.50681992e-06,3.34765441e-05,6.75463441e-05,9.67410884e-05
-1.75,1.34572835e-07,2.39701418e-06,7.95169008e-06,3.05363687e-05,6.4576966e-05,9.38077661e-05
-1.8,1.34382639e-07,2.33134451e-06,7.47285577e-06,2.76859203e-05,6.16410682e-05,9.09066307e-05
-1.85,1.34223646e-07,2.27067024e-06,7.05600566e-06,2.49827615e-05,5.87364372e-05,8.80371469e-05
-1.9,1.34093566e-07,2.21444736e-06,6.69008799e-06,2.24954034e-05,5.58600047e-05,8.51987385e-05
-1.95,1.33990325e-07,2.16220821e-06,6.36646934e-06,2.02770824e-05,5.30074292e-05,8.23907687e-05
-2.0,1.33912042e-07,2.11354847e-06,6.07832699e-06,1.83475438e-05,5.01725531e-05,7.96125133e-05
-2.05,1.33857006e-07,2.06811682e-06,5.82020858e-06,1.66947285e-05,4.73468516e-05,7.68631207e-05
-2.1,1.3382366e-07,2.02560644e-06,5.58771068e-06,1.5287949e-05,4.45193037e-05,7.41415544e-05
-2.15,1.33810579e-07,1.9857482e-06,5.37724176e-06,1.40905143e-05,4.16777525e-05,7.1446508e-05
-2.2,1.33816461e-07,1.94830506e-06,5.18584556e-06,1.3067217e-05,3.88136101e-05,6.87762797e-05
-2.25,1.33840114e-07,1.91306735e-06,5.011068e-06,1.21874399e-05,3.59314243e-05,6.61285883e-05
-2.3,1.3388044e-07,1.87984902e-06,4.85085576e-06,1.14257963e-05,3.30608169e-05,6.35003029e-05
-2.35,1.33936432e-07,1.8484843e-06,4.70347834e-06,1.07617013e-05,3.0261147e-05,6.08870555e-05
-2.4,1.34007161e-07,1.81882511e-06,4.56746738e-06,1.01786077e-05,2.7608901e-05,5.82827078e-05
-2.45,1.34091769e-07,1.79073867e-06,4.44156913e-06,9.66322964e-06,2.51723703e-05,5.56786756e-05
-2.5,1.34189464e-07,1.76410563e-06,4.32470685e-06,9.20486799e-06,2.29916533e-05,5.30632272e-05
-2.55,1.34299513e-07,1.73881841e-06,4.21595073e-06,8.79486102e-06,2.10751291e-05,5.0421142e-05
-2.6,1.34421237e-07,1.71477976e-06,4.11449378e-06,8.42615139e-06,1.94080456e-05,4.77346298e-05
-2.65,1.34554005e-07,1.69190155e-06,4.0196323e-06,8.09294893e-06,1.79637289e-05,4.498706e-05
-2.7,1.3469723e-07,1.67010377e-06,3.93074987e-06,7.7904694e-06,1.67119952e-05,4.21710224e-05
-2.75,1.34850368e-07,1.64931356e-06,3.84730432e-06,7.51473209e-06,1.5623881e-05,3.92998741e-05
-2.8,1.3501291e-07,1.62946444e-06,3.76881688e-06,7.26240234e-06,1.46736963e-05,3.64166695e-05
-2.85,1.35184383e-07,1.61049568e-06,3.69486321e-06,7.03066856e-06,1.38395619e-05,3.35911127e-05
-2.9,1.35364346e-07,1.59235162e-06,3.6250659e-06,6.81714547e-06,1.3103228e-05,3.09017366e-05
-2.95,1.35552383e-07,1.57498119e-06,3.55908818e-06,6.61979766e-06,1.24496195e-05,2.84133517e-05
-3.0,1.35748111e-07,1.55833746e-06,3.49662858e-06,6.43687857e-06,1.18663231e-05,2.61634161e-05
-3.05,1.35951165e-07,1.54237718e-06,3.43741648e-06,6.26688173e-06,1.13431108e-05,2.41616239e-05
-3.1,1.36161208e-07,1.52706049e-06,3.38120821e-06,6.10850132e-06,1.08715305e-05,2.239755e-05
-3.15,1.36377922e-07,1.51235054e-06,3.32778384e-06,5.96060018e-06,1.04445676e-05,2.08496943e-05
-3.2,1.36601007e-07,1.49821325e-06,3.27694433e-06,5.82218371e-06,1.00563718e-05,1.94924082e-05
-3.25,1.36830184e-07,1.48461702e-06,3.22850911e-06,5.69237837e-06,9.70203721e-06,1.83000811e-05
-3.3,1.37065188e-07,1.47153256e-06,3.18231403e-06,5.57041394e-06,9.37742776e-06,1.72492197e-05
-3.35,1.37305773e-07,1.45893262e-06,3.13820949e-06,5.45560882e-06,9.07903712e-06,1.63192253e-05
-3.4,1.37551704e-07,1.44679189e-06,3.09605888e-06,5.34735772e-06,8.80387702e-06,1.54924795e-05
-3.45,1.37802762e-07,1.43508675e-06,3.05573723e-06,5.24512129e-06,8.54938755e-06,1.47541093e-05
-3.5,1.38058739e-07,1.4237952e-06,3.01712997e-06,5.14841749e-06,8.31336479e-06,1.40916364e-05
-3.55,1.38319441e-07,1.4128967e-06,2.98013187e-06,5.05681417e-06,8.09390234e-06,1.3494611e-05
-3.6,1.38584682e-07,1.40237203e-06,2.94464614e-06,4.96992284e-06,7.8893436e-06,1.29542754e-05
-3.65,1.3885429e-07,1.39220324e-06,2.91058357e-06,4.88739329e-06,7.69824288e-06,1.24632716e-05
-3.7,1.39128099e-07,1.38237348e-06,2.87786181e-06,4.80890903e-06,7.51933331e-06,1.20153967e-05
-3.75,1.39405956e-07,1.37286699e-06,2.84640476e-06,4.73418332e-06,7.35150044e-06,1.16054e-05
-3.8,1.39687713e-07,1.36366896e-06,2.81614194e-06,4.6629558e-06,7.1937602e-06,1.12288172e-05
-3.85,1.39973232e-07,1.35476548e-06,2.78700802e-06,4.59498951e-06,7.04524063e-06,1.0881836e-05
-3.9,1.40262381e-07,1.34614349e-06,2.75894234e-06,4.53006835e-06,6.9051665e-06,1.05611858e-05
-3.95,1.40555039e-07,1.3377907e-06,2.73188852e-06,4.46799481e-06,6.77284641e-06,1.02640482e-05
-4.0,1.40851086e-07,1.32969552e-06,2.70579408e-06,4.40858805e-06,6.64766179e-06,9.98798362e-06
-4.05,1.41150413e-07,1.32184706e-06,2.68061011e-06,4.35168219e-06,6.52905771e-06,9.73087196e-06
-4.1,1.41452915e-07,1.31423503e-06,2.65629098e-06,4.29712475e-06,6.41653492e-06,9.49086271e-06
-4.15,1.41758493e-07,1.30684973e-06,2.63279409e-06,4.2447754e-06,6.30964307e-06,9.26633461e-06
-4.2,1.42067053e-07,1.29968201e-06,2.61007958e-06,4.19450471e-06,6.20797496e-06,9.05586179e-06
-4.25,1.42378506e-07,1.29272321e-06,2.58811018e-06,4.14619319e-06,6.11116147e-06,8.85818573e-06
-4.3,1.42692769e-07,1.28596516e-06,2.56685094e-06,4.09973028e-06,6.01886727e-06,8.67219182e-06
-4.35,1.43009762e-07,1.27940013e-06,2.54626912e-06,4.05501359e-06,5.93078704e-06,8.49688963e-06
-4.4,1.4332941e-07,1.27302079e-06,2.52633396e-06,4.01194816e-06,5.84664223e-06,8.33139633e-06
-4.45,1.43651642e-07,1.26682022e-06,2.5070166e-06,3.97044577e-06,5.76617818e-06,8.17492263e-06
-4.5,1.43976391e-07,1.26079186e-06,2.48828989e-06,3.9304244e-06,5.68916164e-06,8.02676087e-06
-4.55,1.44303593e-07,1.25492948e-06,2.47012829e-06,3.89180768e-06,5.61537856e-06,7.88627483e-06
-4.6,1.44633188e-07,1.2492272e-06,2.45250776e-06,3.85452441e-06,5.54463221e-06,7.75289102e-06
-4.65,1.4496512e-07,1.24367941e-06,2.43540564e-06,3.81850816e-06,5.4767414e-06,7.62609121e-06
-4.7,1.45299334e-07,1.2382808e-06,2.41880059e-06,3.78369684e-06,5.41153907e-06,7.50540601e-06
-4.75,1.4563578e-07,1.23302634e-06,2.40267245e-06,3.75003242e-06,5.34887086e-06,7.39040925e-06
-4.8,1.4597441e-07,1.22791125e-06,2.38700221e-06,3.71746056e-06,5.28859401e-06,7.2807132e-06
-4.85,1.46315179e-07,1.22293097e-06,2.37177191e-06,3.68593035e-06,5.23057626e-06,7.17596434e-06
-4.9,1.46658043e-07,1.21808117e-06,2.35696457e-06,3.65539405e-06,5.1746949e-06,7.07583969e-06
-4.95,1.47002964e-07,1.21335776e-06,2.34256414e-06,3.62580685e-06,5.12083597e-06,6.98004363e-06
-5.0,1.47349903e-07,1.20875682e-06,2.32855545e-06,3.59712665e-06,5.06889347e-06,6.88830506e-06
-5.05,1.47698823e-07,1.20427463e-06,2.31492412e-06,3.56931388e-06,5.0187687e-06,6.80037494e-06
-5.1,1.48049692e-07,1.19990765e-06,2.30165655e-06,3.54233132e-06,4.97036965e-06,6.71602408e-06
-5.15,1.48402477e-07,1.1956525e-06,2.28873984e-06,3.51614392e-06,4.92361045e-06,6.63504127e-06
-5.2,1.48757149e-07,1.19150598e-06,2.27616178e-06,3.49071867e-06,4.87841089e-06,6.55723149e-06
-5.25,1.4911368e-07,1.18746502e-06,2.2639108e-06,3.46602445e-06,4.83469593e-06,6.48241447e-06
-5.3,1.49472043e-07,1.1835267e-06,2.2519759e-06,3.44203189e-06,4.79239536e-06,6.4104233e-06
-5.35,1.49832213e-07,1.17968825e-06,2.24034665e-06,3.41871331e-06,4.75144338e-06,6.34110321e-06
-5.4,1.50194167e-07,1.17594701e-06,2.22901318e-06,3.39604255e-06,4.7117783e-06,6.27431055e-06
-5.45,1.50557884e-07,1.17230044e-06,2.21796607e-06,3.37399489e-06,4.6733422e-06,6.20991176e-06
-5.5,1.50923343e-07,1.16874614e-06,2.20719641e-06,3.35254699e-06,4.63608071e-06,6.14778256e-06
-5.55,1.51290524e-07,1.16528178e-06,2.19669571e-06,3.33167675e-06,4.5999427e-06,6.08780715e-06
-5.6,1.51659411e-07,1.16190516e-06,2.18645592e-06,3.31136328e-06,4.5648801e-06,6.02987751e-06
-5.65,1.52029986e-07,1.15861418e-06,2.17646936e-06,3.29158681e-06,4.53084765e-06,5.97389277e-06
-5.7,1.52402234e-07,1.15540682e-06,2.16672874e-06,3.27232861e-06,4.49780272e-06,5.91975867e-06
-5.75,1.5277614e-07,1.15228116e-06,2.15722713e-06,3.25357094e-06,4.46570515e-06,5.86738698e-06
-5.8,1.53151692e-07,1.14923534e-06,2.14795792e-06,3.23529701e-06,4.43451706e-06,5.81669512e-06
-5.85,1.53528876e-07,1.1462676e-06,2.13891482e-06,3.21749089e-06,4.40420272e-06,5.76760565e-06
-5.9,1.53907681e-07,1.14337626e-06,2.13009183e-06,3.20013746e-06,4.37472839e-06,5.72004595e-06
-5.95,1.54288097e-07,1.14055968e-06,2.12148325e-06,3.1832224e-06,4.34606223e-06,5.67394784e-06
-6.0,1.54670113e-07,1.13781633e-06,2.11308362e-06,3.16673212e-06,4.31817414e-06,5.62924726e-06
-6.05,1.5505372e-07,1.13514471e-06,2.10488777e-06,3.15065371e-06,4.29103568e-06,5.585884e-06
-6.1,1.55438911e-07,1.13254339e-06,2.09689074e-06,3.13497493e-06,4.26461995e-06,5.54380139e-06
-6.15,1.55825678e-07,1.130011e-06,2.08908779e-06,3.11968412e-06,4.2389015e-06,5.50294611e-06
-6.2,1.56214013e-07,1.12754622e-06,2.08147442e-06,3.10477025e-06,4.21385626e-06,5.46326792e-06
-6.25,1.5660391e-07,1.12514779e-06,2.07404631e-06,3.09022278e-06,4.18946145e-06,5.42471946e-06
-6.3,1.56995364e-07,1.12281449e-06,2.06679934e-06,3.07603175e-06,4.16569546e-06,5.38725611e-06
-6.35,1.5738837e-07,1.12054515e-06,2.05972957e-06,3.06218763e-06,4.14253786e-06,5.35083574e-06
-6.4,1.57782922e-07,1.11833864e-06,2.05283323e-06,3.0486814e-06,4.11996928e-06,5.31541859e-06
-6.45,1.58179017e-07,1.11619388e-06,2.0461067e-06,3.03550444e-06,4.09797134e-06,5.28096715e-06
-6.5,1.58576651e-07,1.11410982e-06,2.03954655e-06,3.02264857e-06,4.07652664e-06,5.24744593e-06
-6.55,1.58975821e-07,1.11208545e-06,2.03314945e-06,3.01010597e-06,4.05561867e-06,5.21482144e-06
-6.6,1.59376525e-07,1.1101198e-06,2.02691223e-06,2.99786921e-06,4.03523175e-06,5.183062e-06
