vds,vb1,vb2,vb3,vb4,vb5,vb6
0.0,3.83235328e-06,1.33492865e-05,2.16310066e-05,2.86305598e-05,3.51740641e-05,4.06268995e-05
-0.05,3.2633842e-06,1.27358014e-05,2.10367849e-05,2.80640956e-05,3.46350287e-05,4.0115902e-05
-0.1,2.69892691e-06,1.21246176e-05,2.04443761e-05,2.74990975e-05,3.40971965e-05,3.96059031e-05
-0.15,2.14096525e-06,1.15157385e-05,1.98537771e-05,2.69355632e-05,3.35605658e-05,3.90969015e-05
-0.2,1.5949373e-06,1.09091706e-05,1.92649852e-05,2.63734903e-05,3.30251348e-05,3.8588896e-05
-0.25,1.07684856e-06,1.03049257e-05,1.86779982e-05,2.58128765e-05,3.2490902e-05,3.80818854e-05
-0.3,6.30388828e-07,9.7030227e-06,1.80928138e-05,2.52537197e-05,3.19578655e-05,3.75758682e-05
-0.35,3.27799248e-07,9.10349087e-06,1.75094307e-05,2.46960176e-05,3.14260238e-05,3.70708433e-05
-0.4,1.83278786e-07,8.50637505e-06,1.69278478e-05,2.41397683e-05,3.0895375e-05,3.65668093e-05
-0.45,1.27518994e-07,7.91174375e-06,1.63480648e-05,2.35849697e-05,3.03659177e-05,3.60637651e-05
-0.5,1.05264182e-07,7.31970241e-06,1.57700824e-05,2.30316199e-05,2.98376502e-05,3.55617094e-05
-0.55,9.48106779e-08,6.73041569e-06,1.51939024e-05,2.24797174e-05,2.93105709e-05,3.5060641e-05
-0.6,8.89053672e-08,6.14414599e-06,1.46195281e-05,2.19292606e-05,2.87846782e-05,3.45605585e-05
-0.65,8.49942668e-08,5.56132201e-06,1.40469647e-05,2.13802481e-05,2.82599706e-05,3.40614609e-05
-0.7,8.20768865e-08,4.98266489e-06,1.34762199e-05,2.08326789e-05,2.77364468e-05,3.35633468e-05
-0.75,7.9716381e-08,4.40942633e-06,1.29073048e-05,2.02865523e-05,2.72141052e-05,3.30662151e-05
-0.8,7.77023012e-08,3.84384728e-06,1.23402347e-05,1.97418676e-05,2.66929446e-05,3.25700647e-05
-0.85,7.59239878e-08,3.29003936e-06,1.17750312e-05,1.91986251e-05,2.61729636e-05,3.20748943e-05
-0.9,7.43184995e-08,2.75559436e-06,1.12117237e-05,1.86568251e-05,2.56541611e-05,3.15807028e-05
-0.95,7.28474e-08,2.25405251e-06,1.06503529e-05,1.81164689e-05,2.5136536e-05,3.10874891e-05
-1.0,7.14856576e-08,1.80689788e-06,1.00909752e-05,1.75775584e-05,2.46200874e-05,3.05952522e-05
-1.05,7.0216002e-08,1.44007926e-06,9.53366986e-06,1.70400965e-05,2.41048144e-05,3.0103991e-05
-1.1,6.90258959e-08,1.1701414e-06,8.97854845e-06,1.65040872e-05,2.35907164e-05,2.96137045e-05
-1.15,6.79058299e-08,9.9053471e-07,8.42577109e-06,1.59695361e-05,2.30777929e-05,2.91243918e-05
-1.2,6.68483191e-08,8.76985638e-07,7.87557071e-06,1.54364507e-05,2.25660436e-05,2.8636052e-05
-1.25,6.58472884e-08,8.04202103e-07,7.32829208e-06,1.49048406e-05,2.20554686e-05,2.81486841e-05
-1.3,6.48976819e-08,7.54644518e-07,6.78445526e-06,1.43747188e-05,2.15460681e-05,2.76622876e-05
-1.35,6.39952056e-08,7.18213971e-07,6.24485989e-06,1.38461017e-05,2.10378429e-05,2.71768616e-05
-1.4,6.31361524e-08,6.89480608e-07,5.71075857e-06,1.33190112e-05,2.0530794e-05,2.66924056e-05
-1.45,6.23172795e-08,6.65538611e-07,5.18414413e-06,1.27934755e-05,2.0024923e-05,2.62089191e-05
-1.5,6.15357195e-08,6.44788742e-07,4.66821388e-06,1.22695316e-05,1.95202322e-05,2.57264017e-05
-1.55,6.07889147e-08,6.26311317e-07,4.16806895e-06,1.17472286e-05,1.90167243e-05,2.52448532e-05
-1.6,6.00745676e-08,6.09549712e-07,3.69159806e-06,1.12266311e-05,1.85144033e-05,2.47642735e-05
-1.65,5.93906014e-08,5.94148541e-07,3.25011355e-06,1.07078263e-05,1.80132738e-05,2.42846627e-05
-1.7,5.873513e-08,5.79868623e-07,2.85757278e-06,1.01909318e-05,1.7513342e-05,2.38060211e-05
-1.75,5.81064328e-08,5.66540776e-07,2.52690744e-06,9.67610876e-06,1.70146155e-05,2.33283492e-05
-1.8,5.75029344e-08,5.54039805e-07,2.26410144e-06,9.16358064e-06,1.6517104e-05,2.28516479e-05
-1.85,5.69231878e-08,5.42269325e-07,2.06461557e-06,8.65366155e-06,1.60208193e-05,2.23759181e-05
-1.9,5.63658601e-08,5.31152587e-07,1.91599057e-06,8.14679913e-06,1.55257764e-05,2.19011614e-05
-1.95,5.58297205e-08,5.2062674e-07,1.80389702e-06,7.64364022e-06,1.50319941e-05,2.14273797e-05
-2.0,5.53136299e-08,5.10639119e-07,1.7164506e-06,7.14513157e-06,1.45394959e-05,2.09545754e-05
-2.05,5.48165318e-08,5.01144765e-07,1.64535045e-06,6.65267321e-06,1.40483114e-05,2.04827513e-05
-2.1,5.43374445e-08,4.92104718e-07,1.58527261e-06,6.16834637e-06,1.35584782e-05,2.00119113e-05
-2.15,5.38754544e-08,4.83484803e-07,1.53290715e-06,5.69523398e-06,1.30700444e-05,1.95420596e-05
-2.2,5.34297098e-08,4.75254745e-07,1.48619101e-06,5.23781904e-06,1.25830714e-05,1.90732019e-05
-2.25,5.29994155e-08,4.67387511e-07,1.44380846e-06,4.80234797e-06,1.2097639e-05,1.86053446e-05
-2.3,5.2583828e-08,4.59858795e-07,1.40489076e-06,4.39684599e-06,1.16138514e-05,1.81384958e-05
-2.35,5.21822514e-08,4.52646629e-07,1.36884075e-06,4.03025299e-06,1.11318459e-05,1.76726652e-05
-2.4,5.17940334e-08,4.45731057e-07,1.33523036e-06,3.71029315e-06,1.06518052e-05,1.72078645e-05
-2.45,5.14185618e-08,4.39093883e-07,1.30374021e-06,3.44066952e-06,1.01739754e-05,1.67441082e-05
-2.5,5.10552617e-08,4.32718454e-07,1.27412313e-06,3.21940271e-06,9.69869116e-06,1.62814137e-05
-2.55,5.07035922e-08,4.26589487e-07,1.24618162e-06,3.03973957e-06,9.22641263e-06,1.58198024e-05
-2.6,5.03630443e-08,4.20692914e-07,1.21975363e-06,2.89287684e-06,8.75777858e-06,1.53593007e-05
-2.65,5.00331383e-08,4.15015756e-07,1.19470313e-06,2.77049411e-06,8.29368317e-06,1.48999408e-05
-2.7,4.97134218e-08,4.09546012e-07,1.17091392e-06,2.66598883e-06,7.83538456e-06,1.44417632e-05
-2.75,4.94034679e-08,4.04272562e-07,1.14828522e-06,2.57460878e-06,7.38465315e-06,1.39848181e-05
-2.8,4.91028731e-08,3.99185087e-07,1.12672863e-06,2.49309126e-06,6.94396009e-06,1.35291689e-05
-2.85,4.88112559e-08,3.94273991e-07,1.10616582e-06,2.41922557e-06,6.51668291e-06,1.30748955e-05
-2.9,4.85282555e-08,3.89530338e-07,1.08652686e-06,2.35149959e-06,6.10725419e-06,1.26221001e-05
-2.95,4.825353e-08,3.84945795e-07,1.06774891e-06,2.28885447e-06,5.72109614e-06,1.21709141e-05
-3.0,4.79867555e-08,3.80512577e-07,1.0497752e-06,2.23052518e-06,5.36411542e-06,1.17215078e-05
-3.05,4.77276249e-08,3.76223406e-07,1.03255418e-06,2.1759398e-06,5.04161266e-06,1.12741042e-05
-3.1,4.74758469e-08,3.72071469e-07,1.01603889e-06,2.12465622e-06,4.75683088e-06,1.08289973e-05
-3.15,4.72311447e-08,3.68050376e-07,1.00018639e-06,2.07632197e-06,4.50985993e-06,1.03865784e-05
-3.2,4.69932554e-08,3.64154133e-07,9.84957297e-07,2.03064845e-06,4.29763914e-06,9.94737184e-06
-3.25,4.67619292e-08,3.60377106e-07,9.70315397e-07,1.98739398e-06,4.11507467e-06,9.51208466e-06
-3.3,4.65369284e-08,3.56714e-07,9.56227311e-07,1.94635237e-06,3.95652409e-06,9.08167339e-06
-3.35,4.63180268e-08,3.53159829e-07,9.42662206e-07,1.90734506e-06,3.81688788e-06,8.65743136e-06
-3.4,4.61050092e-08,3.49709893e-07,9.29591543e-07,1.8702155e-06,3.69207409e-06,8.24109528e-06
-3.45,4.58976703e-08,3.46359764e-07,9.16988861e-07,1.83482513e-06,3.57901065e-06,7.83495982e-06
-3.5,4.56958147e-08,3.43105257e-07,9.04829581e-07,1.80105026e-06,3.4754594e-06,7.44196715e-06
-3.55,4.54992562e-08,3.39942423e-07,8.93090838e-07,1.76877982e-06,3.37979687e-06,7.06570466e-06
-3.6,4.53078168e-08,3.36867526e-07,8.81751331e-07,1.73791349e-06,3.29083037e-06,6.71020999e-06
-3.65,4.51213271e-08,3.33877032e-07,8.70791183e-07,1.70836025e-06,3.20766332e-06,6.3794886e-06
-3.7,4.49396252e-08,3.30967594e-07,8.6019183e-07,1.68003718e-06,3.12960284e-06,6.07675778e-06
-3.75,4.47625563e-08,3.28136043e-07,8.49935905e-07,1.65286852e-06,3.05609804e-06,5.80364597e-06
-3.8,4.4589973e-08,3.2537937e-07,8.40007144e-07,1.62678481e-06,2.98669929e-06,5.55974241e-06
-3.85,4.4421734e-08,3.22694725e-07,8.303903e-07,1.60172222e-06,2.92103097e-06,5.34277604e-06
-3.9,4.42577046e-08,3.20079398e-07,8.21071063e-07,1.57762196e-06,2.85877323e-06,5.14932177e-06
-3.95,4.40977557e-08,3.17530817e-07,8.12035986e-07,1.55442975e-06,2.79964934e-06,4.97563737e-06
-4.0,4.3941764e-08,3.15046538e-07,8.03272424e-07,1.53209536e-06,2.7434168e-06,4.8182781e-06
-4.05,4.37896115e-08,3.12624234e-07,7.94768475e-07,1.51057229e-06,2.68986097e-06,4.67438128e-06
-4.1,4.36411853e-08,3.10261692e-07,7.86512921e-07,1.48981734e-06,2.63879025e-06,4.54170128e-06
-4.15,4.34963773e-08,3.07956807e-07,7.78495186e-07,1.46979037e-06,2.59003251e-06,4.41852116e-06
-4.2,4.3355084e-08,3.05707572e-07,7.70705284e-07,1.45045401e-06,2.54343224e-06,4.30353177e-06
-4.25,4.32172063e-08,3.03512076e-07,7.63133785e-07,1.4317734e-06,2.49884833e-06,4.19572249e-06
-4.3,4.30826492e-08,3.01368494e-07,7.55771773e-07,1.41371602e-06,2.4561522e-06,4.09429647e-06
-4.35,4.29513219e-08,2.9927509e-07,7.48610812e-07,1.39625147e-06,2.41522636e-06,3.99860997e-06
-4.4,4.2823137e-08,2.97230204e-07,7.41642915e-07,1.37935129e-06,2.37596313e-06,3.90813026e-06
-4.45,4.2698011e-08,2.95232255e-07,7.34860516e-07,1.36298882e-06,2.33826354e-06,3.8224069e-06
-4.5,4.25758638e-08,2.93279729e-07,7.2825644e-07,1.34713907e-06,2.30203644e-06,3.74105203e-06
-4.55,4.24566186e-08,2.91371184e-07,7.21823882e-07,1.33177855e-06,2.26719773e-06,3.66372677e-06
-4.6,4.23402015e-08,2.89505239e-07,7.15556382e-07,1.31688522e-06,2.23366964e-06,3.59013149e-06
-4.65,4.22265418e-08,2.87680577e-07,7.09447801e-07,1.30243831e-06,2.20138014e-06,3.51999884e-06
-4.7,4.21155718e-08,2.85895935e-07,7.0349231e-07,1.28841829e-06,2.17026239e-06,3.45308854e-06
-4.75,4.20072261e-08,2.8415011e-07,6.97684363e-07,1.27480674e-06,2.14025431e-06,3.38918336e-06
-4.8,4.19014422e-08,2.82441946e-07,6.92018683e-07,1.26158628e-06,2.11129814e-06,3.32808601e-06
-4.85,4.179816e-08,2.8077034e-07,6.8649025e-07,1.24874053e-06,2.08334003e-06,3.2696166e-06
-4.9,4.16973219e-08,2.79134234e-07,6.81094281e-07,1.23625398e-06,2.05632978e-06,3.21361062e-06
-4.95,4.15988722e-08,2.77532618e-07,6.75826221e-07,1.22411198e-06,2.03022048e-06,3.15991717e-06
-5.0,4.15027578e-08,2.75964521e-07,6.70681727e-07,1.21230068e-06,2.00496827e-06,3.1083975e-06
-5.05,4.14089273e-08,2.74429016e-07,6.65656658e-07,1.20080695e-06,1.98053208e-06,3.0589238e-06
-5.1,4.13173315e-08,2.72925211e-07,6.60747065e-07,1.18961835e-06,1.95687342e-06,3.01137808e-06
-5.15,4.1227923e-08,2.71452254e-07,6.5594918e-07,1.1787231e-06,1.93395618e-06,2.96565122e-06
-5.2,4.11406562e-08,2.70009328e-07,6.51259403e-07,1.16810999e-06,1.91174643e-06,2.92164218e-06
-5.25,4.10554871e-08,2.68595648e-07,6.46674299e-07,1.15776842e-06,1.89021232e-06,2.87925721e-06
-5.3,4.09723736e-08,2.67210461e-07,6.42190587e-07,1.14768829e-06,1.86932382e-06,2.83840921e-06
-5.35,4.08912749e-08,2.65853046e-07,6.3780513e-07,1.13786002e-06,1.84905269e-06,2.79901719e-06
-5.4,4.08121519e-08,2.64522709e-07,6.3351493e-07,1.12827449e-06,1.82937231e-06,2.7610057e-06
-5.45,4.07349668e-08,2.63218786e-07,6.29317121e-07,1.11892303e-06,1.81025753e-06,2.72430437e-06
-5.5,4.06596832e-08,2.61940638e-07,6.25208963e-07,1.10979738e-06,1.79168465e-06,2.68884751e-06
-5.55,4.0586266e-08,2.6068765e-07,6.21187832e-07,1.10088968e-06,1.77363125e-06,2.65457373e-06
-5.6,4.05146813e-08,2.59459233e-07,6.17251219e-07,1.09219245e-06,1.75607614e-06,2.62142556e-06
-5.65,4.04448966e-08,2.58254822e-07,6.13396723e-07,1.08369854e-06,1.73899925e-06,2.58934918e-06
-5.7,4.03768802e-08,2.5707387e-07,6.09622043e-07,1.07540115e-06,1.7223816e-06,2.55829412e-06
-5.75,4.03106017e-08,2.55915854e-07,6.05924977e-07,1.06729378e-06,1.70620519e-06,2.52821302e-06
-5.8,4.02460317e-08,2.54780271e-07,6.02303416e-07,1.05937025e-06,1.69045296e-06,2.49906137e-06
-5.85,4.01831419e-08,2.53666634e-07,5.98755339e-07,1.05162465e-06,1.67510871e-06,2.47079733e-06
-5.9,4.01219047e-08,2.52574478e-07,5.95278807e-07,1.04405132e-06,1.66015707e-06,2.4433815e-06
-5.95,4.00622936e-08,2.51503353e-07,5.91871965e-07,1.03664488e-06,1.64558345e-06,2.41677678e-06
-6.0,4.00042829e-08,2.50452826e-07,5.88533032e-07,1.02940017e-06,1.63137397e-06,2.39094819e-06
-6.05,3.99478478e-08,2.4942248e-07,5.85260299e-07,1.02231228e-06,1.61751544e-06,2.36586271e-06
-6.1,3.9892964e-08,2.48411914e-07,5.82052129e-07,1.01537651e-06,1.6039953e-06,2.34148918e-06
-6.15,3.98396084e-08,2.47420738e-07,5.7890695e-07,1.00858834e-06,1.59080161e-06,2.31779814e-06
-6.2,3.97877582e-08,2.46448581e-07,5.75823253e-07,1.00194348e-06,1.577923e-06,2.29476172e-06
-6.25,3.97373916e-08,2.4549508e-07,5.72799589e-07,9.95437815e-07,1.56534862e-06,2.27235357e-06
-6.3,3.96884873e-08,2.44559887e-07,5.69834567e-07,9.89067404e-07,1.55306815e-06,2.2505487e-06
-6.35,3.96410246e-08,2.43642667e-07,5.66926851e-07,9.82828478e-07,1.54107175e-06,2.22932346e-06
-6.4,3.95949836e-08,2.42743094e-07,5.64075157e-07,9.76717428e-07,1.52935002e-06,2.20865541e-06
-6.45,3.95503447e-08,2.41860853e-07,5.61278249e-07,9.70730798e-07,1.517894e-06,2.18852325e-06
-6.5,3.9507089e-08,2.40995643e-07,5.58534943e-07,9.6486528e-07,1.50669515e-06,2.16890678e-06
-6.55,3.94651981e-08,2.40147168e-07,5.55844095e-07,9.59117702e-07,1.49574531e-06,2.14978678e-06
-6.6,3.94246542e-08,2.39315144e-07,5.53204608e-07,9.53485028e-07,1.48503668e-06,2.13114501e-06
