vds,vb1,vb2,vb3,vb4,vb5,vb6
0.0,5.00773205e-05,0.000224438875,0.000364973461,0.000484371915,0.000588574618,0.000681685957
-0.05,3.95055457e-05,0.000212872897,0.000354088152,0.000474138611,0.000578895404,0.000672469348
-0.1,2.90819704e-05,0.000201343281,0.000343233153,0.000463931838,0.00056923999,0.000663274466
-0.15,1.90333036e-05,0.000189850191,0.000332408401,0.000453751529,0.000559608314,0.000654101256
-0.2,1.01536584e-05,0.000178393902,0.000321613839,0.000443597616,0.000550000312,0.000644949659
-0.25,4.20078036e-06,0.000166974847,0.000310849417,0.000433470033,0.000540415923,0.000635819619
-0.3,1.69571005e-06,0.000155593701,0.000300115095,0.000423368714,0.000530855085,0.00062671108
-0.35,8.90674608e-07,0.000144251504,0.000289410842,0.000413293598,0.000521317736,0.000617623985
-0.4,6.09281103e-07,0.000132949875,0.000278736642,0.000403244623,0.000511803818,0.000608558279
-0.45,4.87152595e-07,0.000121691368,0.000268092497,0.00039322173,0.00050231327,0.000599513907
-0.5,4.21823779e-07,0.000110480097,0.00025747843,0.000383224864,0.000492846033,0.000590490814
-0.55,3.80620891e-07,9.93228728e-05,0.000246894494,0.000373253971,0.000483402051,0.000581488945
-0.6,3.51373434e-07,8.82313196e-05,0.000236340779,0.000363309003,0.000473981265,0.000572508247
-0.65,3.2886717e-07,7.72259815e-05,0.000225817423,0.000353389914,0.00046458362,0.000563548665
-0.7,3.10584175e-07,6.63444747e-05,0.000215324633,0.000343496663,0.000455209061,0.000554610146
-0.75,2.95178053e-07,5.56578218e-05,0.000204862701,0.000333629218,0.000445857536,0.000545692639
-0.8,2.81863435e-07,4.53020817e-05,0.000194432045,0.00032378755,0.00043652899,0.00053679609
-0.85,2.70147062e-07,3.5531533e-05,0.000184033247,0.00031397164,0.000427223375,0.000527920449
-0.9,2.59699241e-07,2.67730465e-05,0.00017366713,0.000304181482,0.000417940641,0.000519065664
-0.95,2.50287872e-07,1.9575595e-05,0.000163334856,0.000294417079,0.000408680742,0.000510231686
-1.0,2.41742428e-07,1.43179464e-05,0.000153038085,0.000284678451,0.000399443634,0.000501418465
-1.05,2.33933148e-07,1.08849395e-05,0.000142779213,0.000274965638,0.000390229274,0.000492625953
-1.1,2.26758435e-07,8.7738176e-06,0.00013256175,0.000265278704,0.000381037624,0.000483854101
-1.15,2.20136859e-07,7.4657296e-06,0.000122390936,0.000255617742,0.000371868649,0.000475102863
-1.2,2.14001893e-07,6.61018687e-06,0.000112274728,0.000245982886,0.000362722318,0.000466372193
-1.25,2.08298317e-07,6.00992739e-06,0.000102225475,0.000236374318,0.000353598605,0.000457662047
-1.3,2.02979685e-07,5.56009229e-06,9.22627187e-05,0.000226792286,0.000344497488,0.000448972381
-1.35,1.98006499e-07,5.20448121e-06,8.24179616e-05,0.000217237119,0.000335418954,0.000440303154
-1.4,1.93344843e-07,4.91176507e-06,7.27426235e-05,0.00020770926,0.000326362996,0.000431654325
-1.45,1.88965362e-07,4.66354664e-06,6.33206822e-05,0.000198209299,0.000317329617,0.000423025857
-1.5,1.84842463e-07,4.4484106e-06,5.42862891e-05,0.000188738024,0.00030831883,0.000414417711
-1.55,1.80953698e-07,4.25888761e-06,4.58408086e-05,0.000179296501,0.000299330665,0.000405829856
-1.6,1.77279266e-07,4.08984774e-06,3.82495577e-05,0.000169886172,0.000290365163,0.000397262258
-1.65,1.73801615e-07,3.93761427e-06,3.17852717e-05,0.000160509014,0.000281422388,0.000388714889
-1.7,1.70505116e-07,3.79945378e-06,2.66133159e-05,0.000151167768,0.000272502427,0.000380187724
-1.75,1.67375798e-07,3.67327035e-06,2.26977694e-05,0.000141866272,0.000263605399,0.000371680742
-1.8,1.64401125e-07,3.55741479e-06,1.9825964e-05,0.000132609986,0.000254731459,0.000363193925
-1.85,1.61569812e-07,3.45056118e-06,1.7723367e-05,0.000123406779,0.000245880807,0.000354727263
-1.9,1.58871664e-07,3.35162424e-06,1.614981e-05,0.000114268162,0.000237053705,0.000346280748
-1.95,1.5629745e-07,3.25970213e-06,1.4931964e-05,0.000105211186,0.00022825049,0.000337854382
-2.0,1.53838783e-07,3.17403597e-06,1.39557812e-05,9.62613887e-05,0.000219471596,0.000329448175
-2.05,1.51488028e-07,3.09398025e-06,1.31486108e-05,8.74572141e-05,0.000210717582,0.000321062146
-2.1,1.49238216e-07,3.01898082e-06,1.24640273e-05,7.88562969e-05,0.000201989174,0.000312696325
-2.15,1.47082973e-07,2.94855813e-06,1.18716831e-05,7.05433249e-05,0.000193287316,0.000304350756
-2.2,1.45016455e-07,2.88229429e-06,1.1351095e-05,6.2637162e-05,0.000184613244,0.000296025499
-2.25,1.43033294e-07,2.81982293e-06,1.08879446e-05,5.52908489e-05,0.000175968591,0.000287720635
-2.3,1.4112855e-07,2.76082105e-06,1.04718739e-05,4.86739674e-05,0.00016735553,0.000279436268
-2.35,1.3929767e-07,2.70500249e-06,1.00951495e-05,4.2930817e-05,0.000158776983,0.00027117253
-2.4,1.37536449e-07,2.65211262e-06,9.75183403e-06,3.81281306e-05,0.00015023692,0.00026292959
-2.45,1.35840995e-07,2.60192396e-06,9.43725768e-06,3.42276753e-05,0.00014174079,0.000254707659
-2.5,1.34207704e-07,2.5542325e-06,9.14767106e-06,3.1106595e-05,0.000133296158,0.000246507004
-2.55,1.32633233e-07,2.50885469e-06,8.88001071e-06,2.86072155e-05,0.000124913633,0.000238327958
-2.6,1.31114475e-07,2.46562484e-06,8.63173632e-06,2.65804859e-05,0.000116608222,0.000230170942
-2.65,1.29648538e-07,2.42439299e-06,8.4007147e-06,2.49063708e-05,0.000108401285,0.000222036482
-2.7,1.28232728e-07,2.38502298e-06,8.18513516e-06,2.34960536e-05,0.000100323249,0.000213925245
-2.75,1.26864534e-07,2.34739093e-06,7.98344646e-06,2.22862404e-05,9.24171503e-05,0.000205838077
-2.8,1.25541609e-07,2.31138384e-06,7.79430892e-06,2.12321813e-05,8.47426637e-05,0.000197776055
-2.85,1.24261758e-07,2.27689838e-06,7.61655736e-06,2.03019289e-05,7.73793583e-05,0.000189740561
-2.9,1.23022929e-07,2.24383989e-06,7.4491721e-06,1.94722358e-05,7.04263669e-05,0.000181733383
-2.95,1.21823197e-07,2.21212147e-06,7.29125577e-06,1.8725792e-05,6.39942524e-05,0.000173756848
-3.0,1.20660756e-07,2.18166318e-06,7.14201478e-06,1.80494004e-05,5.81860645e-05,0.000165814014
-3.05,1.19533912e-07,2.15239137e-06,7.00074409e-06,1.74327726e-05,5.30710937e-05,0.000157908928
-3.1,1.18441073e-07,2.12423804e-06,6.86681481e-06,1.68677245e-05,4.86638194e-05,0.000150046999
-3.15,1.1738074e-07,2.09714033e-06,6.73966386e-06,1.63476291e-05,4.49214797e-05,0.000142235512
-3.2,1.16351503e-07,2.07104004e-06,6.61878531e-06,1.58670375e-05,4.17614175e-05,0.000134484349
-3.25,1.15352032e-07,2.04588316e-06,6.50372318e-06,1.54214091e-05,3.90860465e-05,0.000126806995
-3.3,1.14381076e-07,2.02161956e-06,6.39406525e-06,1.50069174e-05,3.68024648e-05,0.000119221889
-3.35,1.13437451e-07,1.9982026e-06,6.28943785e-06,1.46203049e-05,3.48321102e-05,0.000111754186
-3.4,1.1252004e-07,1.97558886e-06,6.18950134e-06,1.42587751e-05,3.31126875e-05,0.000104437869
-3.45,1.11627789e-07,1.95373783e-06,6.09394631e-06,1.3919909e-05,3.15962603e-05,9.73178988e-05
-3.5,1.10759698e-07,1.93261171e-06,6.00249022e-06,1.36016003e-05,3.0246242e-05,9.04516211e-05
-3.55,1.09914825e-07,1.91217516e-06,5.91487448e-06,1.33020037e-05,2.90345722e-05,8.39079539e-05
-3.6,1.09092274e-07,1.89239512e-06,5.83086199e-06,1.30194949e-05,2.79394737e-05,7.77624579e-05
-3.65,1.08291198e-07,1.87324062e-06,5.75023487e-06,1.27526363e-05,2.69437916e-05,7.20870914e-05
-3.7,1.07510794e-07,1.85468262e-06,5.67279258e-06,1.25001507e-05,2.60338013e-05,6.69361968e-05
-3.75,1.06750301e-07,1.83669386e-06,5.59835018e-06,1.22608986e-05,2.51983572e-05,6.23339893e-05
-3.8,1.06008995e-07,1.81924874e-06,5.52673686e-06,1.20338599e-05,2.44282848e-05,5.82699077e-05
-3.85,1.0528619e-07,1.80232318e-06,5.45779459e-06,1.18181181e-05,2.37159395e-05,5.4704159e-05
-3.9,1.04581234e-07,1.78589451e-06,5.39137694e-06,1.1612847e-05,2.30548827e-05,5.1579735e-05
-3.95,1.03893507e-07,1.7699414e-06,5.32734802e-06,1.14173003e-05,2.24396406e-05,4.88346774e-05
-4.0,1.03222419e-07,1.75444371e-06,5.26558158e-06,1.12308015e-05,2.18655207e-05,4.64105415e-05
-4.05,1.02567411e-07,1.73938248e-06,5.20596012e-06,1.10527357e-05,2.13284707e-05,4.42564335e-05
-4.1,1.01927948e-07,1.72473978e-06,5.14837419e-06,1.08825433e-05,2.08249684e-05,4.23299161e-05
-4.15,1.01303523e-07,1.71049867e-06,5.09272166e-06,1.07197131e-05,2.03519349e-05,4.05963139e-05
-4.2,1.00693652e-07,1.69664316e-06,5.03890718e-06,1.05637776e-05,1.99066641e-05,3.90274628e-05
-4.25,1.00097874e-07,1.68315811e-06,4.98684158e-06,1.04143084e-05,1.94867668e-05,3.76004341e-05
-4.3,9.95157489e-08,1.67002917e-06,4.93644139e-06,1.02709117e-05,1.90901242e-05,3.62964366e-05
-4.35,9.89468579e-08,1.65724279e-06,4.8876284e-06,1.01332254e-05,1.87148499e-05,3.50999373e-05
-4.4,9.83908012e-08,1.64478609e-06,4.84032926e-06,1.00009158e-05,1.83592585e-05,3.39979794e-05
-4.45,9.78471971e-08,1.63264688e-06,4.7944751e-06,9.8736745e-06,1.80218386e-05,3.29796592e-05
-4.5,9.73156813e-08,1.62081358e-06,4.75000119e-06,9.75121656e-06,1.77012311e-05,3.20357247e-05
-4.55,9.67959058e-08,1.60927522e-06,4.70684667e-06,9.63327794e-06,1.73962098e-05,3.11582661e-05
-4.6,9.62875381e-08,1.59802136e-06,4.66495424e-06,9.51961376e-06,1.71056658e-05,3.03404747e-05
-4.65,9.57902604e-08,1.58704209e-06,4.62426991e-06,9.40999655e-06,1.68285933e-05,2.95764531e-05
-4.7,9.53037689e-08,1.576328e-06,4.58474277e-06,9.30421474e-06,1.65640779e-05,2.88610642e-05
-4.75,9.48277729e-08,1.56587012e-06,4.54632481e-06,9.2020713e-06,1.63112865e-05,2.81898108e-05
-4.8,9.43619943e-08,1.55565995e-06,4.50897068e-06,9.10338247e-06,1.60694582e-05,2.7558737e-05
-4.85,9.39061668e-08,1.54568936e-06,4.47263752e-06,9.00797672e-06,1.58378968e-05,2.69643482e-05
-4.9,9.34600355e-08,1.53595064e-06,4.43728482e-06,8.91569372e-06,1.56159639e-05,2.64035453e-05
-4.95,9.30233561e-08,1.52643644e-06,4.40287426e-06,8.82638345e-06,1.54030729e-05,2.58735692e-05
-5.0,9.25958945e-08,1.51713973e-06,4.36936955e-06,8.73990538e-06,1.51986843e-05,2.53719556e-05
-5.05,9.21774264e-08,1.50805386e-06,4.33673633e-06,8.65612777e-06,1.50023004e-05,2.48964963e-05
-5.1,9.17677364e-08,1.49917244e-06,4.30494202e-06,8.57492695e-06,1.48134617e-05,2.44452065e-05
-5.15,9.13666181e-08,1.4904894e-06,4.27395574e-06,8.49618675e-06,1.46317433e-05,2.40162973e-05
-5.2,9.09738732e-08,1.48199894e-06,4.24374819e-06,8.41979796e-06,1.44567516e-05,2.36081518e-05
-5.25,9.05893112e-08,1.47369552e-06,4.21429157e-06,8.34565779e-06,1.42881215e-05,2.32193054e-05
-5.3,9.02127492e-08,1.46557387e-06,4.18555946e-06,8.27366944e-06,1.4125514e-05,2.28484275e-05
-5.35,8.98440115e-08,1.45762892e-06,4.15752677e-06,8.20374166e-06,1.39686134e-05,2.24943071e-05
-5.4,8.9482929e-08,1.44985586e-06,4.13016967e-06,8.13578838e-06,1.38171261e-05,2.21558394e-05
-5.45,8.9129339e-08,1.44225007e-06,4.10346548e-06,8.06972838e-06,1.36707782e-05,2.18320147e-05
-5.5,8.8783085e-08,1.43480713e-06,4.07739263e-06,8.0054849e-06,1.35293138e-05,2.15219077e-05
-5.55,8.84440163e-08,1.42752282e-06,4.05193061e-06,7.94298542e-06,1.33924941e-05,2.12246697e-05
-5.6,8.81119875e-08,1.42039311e-06,4.02705987e-06,7.88216134e-06,1.32600953e-05,2.09395202e-05
-5.65,8.77868589e-08,1.41341412e-06,4.00276181e-06,7.82294773e-06,1.3131908e-05,2.06657407e-05
-5.7,8.74684955e-08,1.40658215e-06,3.97901871e-06,7.76528312e-06,1.30077359e-05,2.04026681e-05
-5.75,8.71567669e-08,1.39989365e-06,3.95581366e-06,7.70910926e-06,1.28873946e-05,2.014969e-05
-5.8,8.68515476e-08,1.3933452e-06,3.93313058e-06,7.65437097e-06,1.2770711e-05,1.99062398e-05
-5.85,8.65527162e-08,1.38693356e-06,3.9109541e-06,7.60101586e-06,1.26575223e-05,1.96717922e-05
-5.9,8.62601554e-08,1.38065558e-06,3.88926956e-06,7.54899427e-06,1.25476755e-05,1.94458598e-05
-5.95,8.59737517e-08,1.37450826e-06,3.86806298e-06,7.49825904e-06,1.24410262e-05,1.92279899e-05
-6.0,8.56933957e-08,1.36848871e-06,3.84732102e-06,7.44876537e-06,1.23374386e-05,1.90177612e-05
-6.05,8.54189811e-08,1.36259416e-06,3.82703092e-06,7.40047072e-06,1.22367845e-05,1.8814781e-05
-6.1,8.51504051e-08,1.35682195e-06,3.80718049e-06,7.35333464e-06,1.21389428e-05,1.86186833e-05
-6.15,8.48875683e-08,1.3511695e-06,3.78775811e-06,7.30731867e-06,1.20437993e-05,1.84291262e-05
-6.2,8.46303741e-08,1.34563436e-06,3.76875262e-06,7.26238623e-06,1.1951246e-05,1.82457901e-05
-6.25,8.43787289e-08,1.34021415e-06,3.7501534e-06,7.21850251e-06,1.18611807e-05,1.8068376e-05
-6.3,8.4132542e-08,1.33490658e-06,3.73195025e-06,7.17563437e-06,1.17735068e-05,1.78966036e-05
-6.35,8.38917251e-08,1.32970946e-06,3.71413342e-06,7.13375025e-06,1.16881328e-05,1.77302102e-05
-6.4,8.36561927e-08,1.32462066e-06,3.69669358e-06,7.09282009e-06,1.1604972e-05,1.75689492e-05
-6.45,8.34258614e-08,1.31963814e-06,3.67962179e-06,7.05281524e-06,1.15239422e-05,1.74125889e-05
-6.5,8.32006504e-08,1.31475991e-06,3.66290947e-06,7.01370841e-06,1.14449656e-05,1.72609115e-05
-6.55,8.29804809e-08,1.30998408e-06,3.64654841e-06,6.97547354e-06,1.13679683e-05,1.71137119e-05
-6.6,8.27652762e-08,1.30530879e-06,3.63053073e-06,6.9380858e-06,1.12928801e-05,1.6970797e-05
