vds,vb1,vb2,vb3,vb4,vb5,vb6
0.0,1.24543892e-07,6.18215513e-07,1.07217217e-06,1.50165793e-06,1.91340563e-06,2.31636352e-06
-0.05,9.46244697e-08,5.83920628e-07,1.03889985e-06,1.4695677e-06,1.88238477e-06,2.28625947e-06
-0.1,6.52047061e-08,5.49632948e-07,1.00563106e-06,1.43748027e-06,1.85136639e-06,2.25615775e-06
-0.15,3.75694256e-08,5.15353695e-07,9.72365891e-07,1.40539565e-06,1.8203505e-06,2.22605835e-06
-0.2,1.59308278e-08,4.81084608e-07,9.39104484e-07,1.37331386e-06,1.78933711e-06,2.19596127e-06
-0.25,5.17763945e-09,4.46828209e-07,9.05846996e-07,1.34123494e-06,1.75832623e-06,2.16586651e-06
-0.3,1.80192383e-09,4.12588239e-07,8.72593626e-07,1.30915892e-06,1.72731787e-06,2.13577408e-06
-0.35,8.05700089e-10,3.78370386e-07,8.39344616e-07,1.27708585e-06,1.69631202e-06,2.10568398e-06
-0.4,4.57318018e-10,3.4418354e-07,8.06100273e-07,1.24501578e-06,1.66530872e-06,2.07559621e-06
-0.45,3.10620131e-10,3.10042049e-07,7.72860976e-07,1.21294875e-06,1.63430797e-06,2.04551078e-06
-0.5,2.38720855e-10,2.75969866e-07,7.39627208e-07,1.18088484e-06,1.60330979e-06,2.01542768e-06
-0.55,1.99011605e-10,2.42008529e-07,7.06399584e-07,1.14882413e-06,1.5723142e-06,1.98534693e-06
-0.6,1.74898921e-10,2.08232996e-07,6.73178894e-07,1.1167667e-06,1.54132121e-06,1.95526853e-06
-0.65,1.59093868e-10,1.74783971e-07,6.39966165e-07,1.08471267e-06,1.51033086e-06,1.92519249e-06
-0.7,1.48068432e-10,1.41934255e-07,6.06762745e-07,1.05266215e-06,1.47934317e-06,1.89511882e-06
-0.75,1.39974288e-10,1.10218699e-07,5.73570429e-07,1.02061531e-06,1.44835817e-06,1.86504752e-06
-0.8,1.33777348e-10,8.06454705e-08,5.40391634e-07,9.88572329e-07,1.41737591e-06,1.8349786e-06
-0.85,1.28866093e-10,5.48590277e-08,5.07229663e-07,9.56533412e-07,1.38639642e-06,1.80491209e-06
-0.9,1.24861315e-10,3.47493754e-08,4.74089099e-07,9.24498823e-07,1.35541974e-06,1.77484798e-06
-0.95,1.21517977e-10,2.1171251e-08,4.40976415e-07,8.92468875e-07,1.32444594e-06,1.7447863e-06
-1.0,1.18671923e-10,1.31243246e-08,4.07900916e-07,8.60443947e-07,1.29347508e-06,1.71472706e-06
-1.05,1.16209619e-10,8.68909778e-09,3.74876246e-07,8.28424503e-07,1.26250723e-06,1.68467028e-06
-1.1,1.14050279e-10,6.26679937e-09,3.41922838e-07,7.96411114e-07,1.23154248e-06,1.65461599e-06
-1.15,1.12134947e-10,4.90013257e-09,3.09071979e-07,7.64404483e-07,1.20058091e-06,1.6245642e-06
-1.2,1.10419605e-10,4.0882079e-09,2.7637266e-07,7.3240549e-07,1.16962264e-06,1.59451495e-06
-1.25,1.0887071e-10,3.5776485e-09,2.43903311e-07,7.00415238e-07,1.13866779e-06,1.56446827e-06
-1.3,1.07462224e-10,3.23838187e-09,2.11791874e-07,6.68435128e-07,1.10771653e-06,1.53442418e-06
-1.35,1.06173599e-10,3.0012424e-09,1.80249578e-07,6.36466949e-07,1.07676901e-06,1.50438274e-06
-1.4,1.0498837e-10,2.82787158e-09,1.49624369e-07,6.0451301e-07,1.04582544e-06,1.47434397e-06
-1.45,1.03893164e-10,2.69606693e-09,1.20473138e-07,5.72576328e-07,1.01488607e-06,1.44430794e-06
-1.5,1.02876986e-10,2.59244152e-09,9.36223041e-08,5.40660883e-07,9.83951169e-07,1.4142747e-06
-1.55,1.01930694e-10,2.50861119e-09,7.0121785e-08,5.08771994e-07,9.53021071e-07,1.3842443e-06
-1.6,1.0104661e-10,2.43913845e-09,5.09595115e-08,4.76916859e-07,9.22096172e-07,1.35421683e-06
-1.65,1.00218225e-10,2.38038247e-09,3.65800579e-08,4.45105356e-07,8.91176942e-07,1.32419235e-06
-1.7,9.94399762e-11,2.32983327e-09,2.6602999e-08,4.13351235e-07,8.6026395e-07,1.29417097e-06
-1.75,9.87070703e-11,2.28571392e-09,2.00576769e-08,3.8167393e-07,8.29357877e-07,1.26415278e-06
-1.8,9.80153516e-11,2.24673545e-09,1.58724193e-08,3.50101341e-07,7.98459555e-07,1.23413791e-06
-1.85,9.73611925e-11,2.21194197e-09,1.31916457e-08,3.18674134e-07,7.67569997e-07,1.20412649e-06
-1.9,9.67414081e-11,2.18061006e-09,1.14385488e-08,2.87452462e-07,7.36690452e-07,1.17411866e-06
-1.95,9.61531873e-11,2.15218207e-09,1.02554701e-08,2.56526411e-07,7.05822465e-07,1.14411462e-06
-2.0,9.55940369e-11,2.12622083e-09,9.42778081e-09,2.26031993e-07,6.74967964e-07,1.11411457e-06
-2.05,9.50617352e-11,2.10237829e-09,8.82710988e-09,1.96174643e-07,6.44129379e-07,1.08411873e-06
-2.1,9.45542946e-11,2.08037349e-09,8.37568656e-09,1.67260723e-07,6.13309788e-07,1.05412738e-06
-2.15,9.40699299e-11,2.05997669e-09,8.02538971e-09,1.39731675e-07,5.82513138e-07,1.02414085e-06
-2.2,9.36070318e-11,2.04099785e-09,7.74569305e-09,1.14181314e-07,5.51744528e-07,9.94159496e-07
-2.25,9.31641449e-11,2.0232781e-09,7.51671773e-09,9.13158039e-08,5.2101062e-07,9.64183759e-07
-2.3,9.27399486e-11,2.00668334e-09,7.32517597e-09,7.18117926e-08,4.90320208e-07,9.34214149e-07
-2.35,9.23332415e-11,1.99109937e-09,7.16195801e-09,5.6087502e-08,4.59685029e-07,9.04251269e-07
-2.4,9.19429275e-11,1.97642819e-09,7.02066591e-09,4.41156699e-08,4.29120931e-07,8.74295838e-07
-2.45,9.1568004e-11,1.96258504e-09,6.89670277e-09,3.54316556e-08,3.98649562e-07,8.4434871e-07
-2.5,9.12075519e-11,1.94949614e-09,6.78669454e-09,2.93321241e-08,3.68300844e-07,8.14410913e-07
-2.55,9.08607263e-11,1.93709687e-09,6.68811493e-09,2.51056159e-08,3.38116586e-07,7.84483683e-07
-2.6,9.05267496e-11,1.92533034e-09,6.59903709e-09,2.2168241e-08,3.08155795e-07,7.54568523e-07
-2.65,9.02049041e-11,1.91414616e-09,6.51796603e-09,2.00955579e-08,2.78502382e-07,7.24667267e-07
-2.7,8.98945263e-11,1.90349951e-09,6.44372334e-09,1.85992241e-08,2.49276104e-07,6.94782167e-07
-2.75,8.95950018e-11,1.89335036e-09,6.37536652e-09,1.74897136e-08,2.2064741e-07,6.64916012e-07
-2.8,8.93057608e-11,1.8836628e-09,6.31213161e-09,1.66437942e-08,1.92855781e-07,6.35072277e-07
-2.85,8.90262737e-11,1.87440447e-09,6.25339173e-09,1.59811056e-08,1.6622825e-07,6.05255326e-07
-2.9,8.87560478e-11,1.86554618e-09,6.19862667e-09,1.5448656e-08,1.41188788e-07,5.75470685e-07
-2.95,8.8494624e-11,1.85706142e-09,6.14740023e-09,1.50109421e-08,1.18241064e-07,5.45725413e-07
-3.0,8.82415738e-11,1.84892612e-09,6.09934326e-09,1.46437351e-08,9.79036515e-08,5.16028598e-07
-3.05,8.79964969e-11,1.84111833e-09,6.05414061e-09,1.43301747e-08,8.05930643e-08,4.86392057e-07
-3.1,8.77590189e-11,1.83361798e-09,6.01152111e-09,1.40582932e-08,6.64925264e-08,4.56831291e-07
-3.15,8.75287889e-11,1.82640666e-09,5.97124977e-09,1.38194283e-08,5.54813302e-08,4.27366823e-07
-3.2,8.73054781e-11,1.8194675e-09,5.93312158e-09,1.36071899e-08,4.71756306e-08,3.98026077e-07
-3.25,8.70887778e-11,1.81278494e-09,5.89695662e-09,1.34167781e-08,4.10532444e-08,3.68846006e-07
-3.3,8.68783978e-11,1.80634464e-09,5.86259611e-09,1.32445244e-08,3.65851637e-08,3.39876781e-07
-3.35,8.66740653e-11,1.80013333e-09,5.82989919e-09,1.30875798e-08,3.33182439e-08,3.11186894e-07
-3.4,8.64755235e-11,1.79413876e-09,5.79874035e-09,1.29436969e-08,3.09026934e-08,2.82870109e-07
-3.45,8.62825304e-11,1.78834953e-09,5.76900725e-09,1.28110784e-08,2.90850654e-08,2.55054537e-07
-3.5,8.60948576e-11,1.78275507e-09,5.74059891e-09,1.26882676e-08,2.76881296e-08,2.27913683e-07
-3.55,8.59122897e-11,1.77734554e-09,5.7134243e-09,1.2574069e-08,2.65899903e-08,2.01678113e-07
-3.6,8.57346233e-11,1.77211179e-09,5.68740098e-09,1.24674912e-08,2.57071335e-08,1.76644011e-07
-3.65,8.55616659e-11,1.76704524e-09,5.66245416e-09,1.23677027e-08,2.4982086e-08,1.53171322e-07
-3.7,8.53932356e-11,1.76213792e-09,5.63851568e-09,1.22740002e-08,2.43749059e-08,1.31660942e-07
-3.75,8.52291602e-11,1.75738234e-09,5.61552335e-09,1.21857829e-08,2.38574693e-08,1.12501989e-07
-3.8,8.50692764e-11,1.75277151e-09,5.59342019e-09,1.21025342e-08,2.34096737e-08,9.59925705e-08
-3.85,8.49134295e-11,1.74829887e-09,5.57215395e-09,1.20238059e-08,2.30169183e-08,8.22593848e-08
-3.9,8.47614729e-11,1.74395824e-09,5.55167655e-09,1.19492073e-08,2.26684228e-08,7.12160574e-08
-3.95,8.46132673e-11,1.73974384e-09,5.53194368e-09,1.18783951e-08,2.23560966e-08,6.25858602e-08
-4.0,8.44686806e-11,1.73565022e-09,5.51291441e-09,1.18110662e-08,2.20737697e-08,5.59765387e-08
-4.05,8.43275871e-11,1.73167225e-09,5.49455087e-09,1.17469517e-08,2.18166637e-08,5.09675884e-08
-4.1,8.41898674e-11,1.72780511e-09,5.47681796e-09,1.16858116e-08,2.15810225e-08,4.71752014e-08
-4.15,8.4055408e-11,1.72404423e-09,5.45968308e-09,1.16274313e-08,2.13638525e-08,4.42836131e-08
-4.2,8.39241007e-11,1.72038532e-09,5.44311592e-09,1.15716175e-08,2.11627357e-08,4.20499988e-08
-4.25,8.37958428e-11,1.71682432e-09,5.42708825e-09,1.15181959e-08,2.09756953e-08,4.02953205e-08
-4.3,8.36705361e-11,1.71335737e-09,5.41157372e-09,1.14670084e-08,2.08010962e-08,3.88906924e-08
-4.35,8.35480874e-11,1.70998085e-09,5.39654774e-09,1.14179117e-08,2.06375717e-08,3.77443513e-08
-4.4,8.34284075e-11,1.70669132e-09,5.3819873e-09,1.13707749e-08,2.0483968e-08,3.67910975e-08
-4.45,8.33114114e-11,1.70348552e-09,5.36787086e-09,1.13254786e-08,2.03393026e-08,3.59844124e-08
-4.5,8.31970182e-11,1.70036036e-09,5.35417823e-09,1.12819131e-08,2.02027315e-08,3.52908272e-08
-4.55,8.30851505e-11,1.69731291e-09,5.34089045e-09,1.1239978e-08,2.00735244e-08,3.46859941e-08
-4.6,8.29757343e-11,1.69434039e-09,5.32798973e-09,1.11995807e-08,1.99510447e-08,3.41519716e-08
-4.65,8.2868699e-11,1.69144016e-09,5.31545931e-09,1.11606357e-08,1.98347343e-08,3.36753547e-08
-4.7,8.2763977e-11,1.68860971e-09,5.30328343e-09,1.11230641e-08,1.97241006e-08,3.32459842e-08
-4.75,8.26615038e-11,1.68584666e-09,5.29144725e-09,1.10867929e-08,1.96187069e-08,3.28560487e-08
-4.8,8.25612176e-11,1.68314873e-09,5.27993676e-09,1.10517541e-08,1.95181638e-08,3.2499456e-08
-4.85,8.24630593e-11,1.68051377e-09,5.26873873e-09,1.10178848e-08,1.94221227e-08,3.21713893e-08
-4.9,8.23669721e-11,1.67793973e-09,5.25784069e-09,1.09851264e-08,1.93302701e-08,3.18679886e-08
-4.95,8.22729018e-11,1.67542464e-09,5.24723084e-09,1.09534241e-08,1.92423232e-08,3.1586122e-08
-5.0,8.21807964e-11,1.67296664e-09,5.23689801e-09,1.0922727e-08,1.91580256e-08,3.13232173e-08
-5.05,8.20906061e-11,1.67056395e-09,5.22683163e-09,1.08929873e-08,1.90771446e-08,3.1077139e-08
-5.1,8.20022829e-11,1.66821488e-09,5.21702169e-09,1.08641604e-08,1.89994677e-08,3.08460949e-08
-5.15,8.1915781e-11,1.6659178e-09,5.20745871e-09,1.08362045e-08,1.89248011e-08,3.06285669e-08
-5.2,8.18310562e-11,1.66367117e-09,5.19813368e-09,1.08090804e-08,1.88529667e-08,3.04232575e-08
-5.25,8.17480663e-11,1.66147351e-09,5.18903806e-09,1.07827512e-08,1.87838013e-08,3.02290483e-08
-5.3,8.16667705e-11,1.65932342e-09,5.18016375e-09,1.07571822e-08,1.87171542e-08,3.00449684e-08
-5.35,8.15871297e-11,1.65721953e-09,5.17150303e-09,1.0732341e-08,1.86528868e-08,2.9870169e-08
-5.4,8.15091063e-11,1.65516057e-09,5.1630486e-09,1.07081967e-08,1.85908705e-08,2.97039033e-08
-5.45,8.1432664e-11,1.6531453e-09,5.15479347e-09,1.06847206e-08,1.85309863e-08,2.95455104e-08
-5.5,8.13577679e-11,1.65117254e-09,5.14673102e-09,1.06618852e-08,1.8473124e-08,2.93944024e-08
-5.55,8.12843846e-11,1.64924116e-09,5.13885494e-09,1.06396647e-08,1.84171807e-08,2.92500538e-08
-5.6,8.12124816e-11,1.64735007e-09,5.13115922e-09,1.06180349e-08,1.8363061e-08,2.91119927e-08
-5.65,8.11420278e-11,1.64549823e-09,5.12363813e-09,1.05969727e-08,1.83106757e-08,2.89797938e-08
-5.7,8.10729929e-11,1.64368465e-09,5.11628621e-09,1.05764562e-08,1.82599415e-08,2.88530718e-08
-5.75,8.10053481e-11,1.64190838e-09,5.10909825e-09,1.05564649e-08,1.82107807e-08,2.87314774e-08
-5.8,8.09390653e-11,1.6401685e-09,5.10206929e-09,1.05369791e-08,1.81631203e-08,2.8614692e-08
-5.85,8.08741173e-11,1.63846412e-09,5.09519457e-09,1.05179803e-08,1.81168921e-08,2.85024244e-08
-5.9,8.08104781e-11,1.63679441e-09,5.08846958e-09,1.04994509e-08,1.80720319e-08,2.83944083e-08
-5.95,8.07481222e-11,1.63515855e-09,5.08188997e-09,1.04813742e-08,1.80284795e-08,2.82903984e-08
-6.0,8.06870253e-11,1.63355576e-09,5.07545161e-09,1.04637343e-08,1.79861783e-08,2.81901695e-08
-6.05,8.06271636e-11,1.63198529e-09,5.06915055e-09,1.0446516e-08,1.7945075e-08,2.80935134e-08
-6.1,8.05685142e-11,1.63044642e-09,5.06298301e-09,1.04297051e-08,1.79051193e-08,2.80002377e-08
-6.15,8.05110549e-11,1.62893846e-09,5.05694535e-09,1.04132879e-08,1.78662638e-08,2.7910164e-08
-6.2,8.04547641e-11,1.62746072e-09,5.05103411e-09,1.03972513e-08,1.78284639e-08,2.78231271e-08
-6.25,8.03996209e-11,1.62601258e-09,5.04524598e-09,1.03815831e-08,1.77916772e-08,2.77389729e-08
-6.3,8.03456051e-11,1.6245934e-09,5.03957776e-09,1.03662714e-08,1.77558638e-08,2.76575583e-08
-6.35,8.02926971e-11,1.62320259e-09,5.03402641e-09,1.0351305e-08,1.7720986e-08,2.75787497e-08
-6.4,8.02408776e-11,1.62183957e-09,5.028589e-09,1.03366731e-08,1.7687008e-08,2.75024223e-08
-6.45,8.01901282e-11,1.62050377e-09,5.02326273e-09,1.03223656e-08,1.76538958e-08,2.74284593e-08
-6.5,8.01404307e-11,1.61919467e-09,5.01804489e-09,1.03083726e-08,1.76216174e-08,2.73567515e-08
-6.55,8.00917678e-11,1.61791174e-09,5.01293291e-09,1.02946849e-08,1.75901423e-08,2.72871965e-08
-6.6,8.00441221e-11,1.61665447e-09,5.0079243e-09,1.02812936e-08,1.75594415e-08,2.7219698e-08
