vds,vb1,vb2,vb3,vb4,vb5,vb6
0.0,0.000110832996,0.000442404735,0.000701235347,0.000908795433,0.00109192364,0.00125480069
-0.05,9.10146214e-05,0.000420979639,0.000680888622,0.000889537316,0.0010735727,0.00123720103
-0.1,7.14610142e-05,0.0003996858,0.000660650408,0.000870372487,0.00105530422,0.00121967576
-0.15,5.23517165e-05,0.000378522804,0.000640520152,0.000851300485,0.00103711781,0.00120222455
-0.2,3.42663662e-05,0.000357490388,0.000620497313,0.000832320855,0.00101901309,0.00118484707
-0.25,1.89391402e-05,0.000336588498,0.000600581365,0.000813433145,0.00100098967,0.00116754298
-0.3,9.22024525e-06,0.000315817386,0.000580771797,0.000794636906,0.000983047181,0.00115031195
-0.35,5.08409435e-06,0.000295177752,0.00056106812,0.000775931697,0.000965185232,0.00113315366
-0.4,3.6060049e-06,0.000274670972,0.000541469866,0.00075731708,0.000947403453,0.00111606778
-0.45,3.01079021e-06,0.000254299472,0.000521976597,0.000738792623,0.00092970147,0.00109905399
-0.5,2.71177588e-06,0.000234067342,0.000502587911,0.000720357902,0.000912078914,0.00108211196
-0.55,2.52858567e-06,0.000213981407,0.000483303453,0.000702012498,0.000894535416,0.00106524137
-0.6,2.39926689e-06,0.000194053118,0.000464122921,0.000683756002,0.000877070614,0.0010484419
-0.65,2.29924755e-06,0.000174302019,0.00044504609,0.000665588012,0.000859684145,0.00103171323
-0.7,2.21735251e-06,0.000154762301,0.000426072829,0.000647508139,0.000842375651,0.00101505505
-0.75,2.14784125e-06,0.000135495472,0.000407203133,0.000629516005,0.00082514478,0.000998467046
-0.8,2.08743689e-06,0.000116615029,0.000388437163,0.000611611245,0.000807991182,0.000981948904
-0.85,2.03409466e-06,9.83328736e-05,0.000369775308,0.000593793515,0.000790914509,0.000965500316
-0.9,1.98644169e-06,8.10357329e-05,0.000351218269,0.000576062485,0.000773914423,0.000949120974
-0.95,1.94350053e-06,6.53650221e-05,0.000332767182,0.000558417854,0.000756990587,0.000932810573
-1.0,1.90454227e-06,5.21612399e-05,0.000314423799,0.000540859347,0.000740142673,0.000916568812
-1.05,1.86900336e-06,4.20707331e-05,0.000296190769,0.000523386724,0.000723370357,0.000900395391
-1.1,1.83643561e-06,3.50361731e-05,0.000278072054,0.000505999788,0.000706673324,0.000884290014
-1.15,1.80647462e-06,3.03456827e-05,0.000260073594,0.000488698396,0.000690051267,0.000868252387
-1.2,1.77881881e-06,2.71681635e-05,0.000242204359,0.000471482469,0.000673503886,0.000852282221
-1.25,1.75321505e-06,2.48974547e-05,0.000224478061,0.000454352015,0.000657030896,0.000836379229
-1.3,1.72944836e-06,2.31729111e-05,0.000206915976,0.000437307146,0.000640632021,0.000820543128
-1.35,1.70733441e-06,2.1793791e-05,0.000189551648,0.000420348113,0.000624306999,0.000804773642
-1.4,1.68671383e-06,2.0647504e-05,0.000172438728,0.000403475348,0.000608055586,0.000789070495
-1.45,1.66744787e-06,1.96680728e-05,0.00015566375,0.000386689522,0.000591877554,0.00077343342
-1.5,1.64941498e-06,1.88145383e-05,0.000139365637,0.000369991624,0.000575772701,0.000757862153
-1.55,1.63250809e-06,1.80599273e-05,0.000123760982,0.000353383077,0.000559740848,0.000742356437
-1.6,1.61663245e-06,1.73854944e-05,0.000109163845,0.000336865898,0.000543781849,0.000726916021
-1.65,1.60170383e-06,1.67775979e-05,9.59681415e-05,0.000320442933,0.000527895595,0.000711540662
-1.7,1.58764705e-06,1.62259277e-05,8.45504605e-05,0.000304118203,0.000512082026,0.000696230125
-1.75,1.57439479e-06,1.57224495e-05,7.5107736e-05,0.00028789741,0.000496341134,0.000680984184
-1.8,1.56188654e-06,1.52607472e-05,6.75539321e-05,0.000271788708,0.000480672984,0.000665802622
-1.85,1.55006777e-06,1.48355954e-05,6.15816922e-05,0.000255803877,0.000465077726,0.000650685237
-1.9,1.53888917e-06,1.44426697e-05,5.6818567e-05,0.000239960116,0.000449555619,0.000635631835
-1.95,1.52830604e-06,1.40783445e-05,5.29417168e-05,0.00022428281,0.000434107061,0.000620642243
-2.0,1.51827777e-06,1.37395466e-05,4.97124243e-05,0.000208809736,0.000418732627,0.000605716301
-2.05,1.50876737e-06,1.34236469e-05,4.6965535e-05,0.000193597282,0.000403433119,0.000590853872
-2.1,1.49974105e-06,1.31283785e-05,4.45882543e-05,0.000178729043,0.00038820964,0.00057605484
-2.15,1.49116792e-06,1.28517731e-05,4.25023233e-05,0.000164326022,0.000373063688,0.000561319121
-2.2,1.48301965e-06,1.25921116e-05,4.06518845e-05,0.000150554664,0.000357997286,0.000546646661
-2.25,1.47527022e-06,1.23478842e-05,3.89957973e-05,0.000137623581,0.00034301317,0.000532037446
-2.3,1.4678957e-06,1.21177585e-05,3.75028491e-05,0.000125756176,0.000328115049,0.00051749151
-2.35,1.46087402e-06,1.19005534e-05,3.61487366e-05,0.000115135329,0.000313307974,0.000503008943
-2.4,1.45418481e-06,1.16952181e-05,3.49141174e-05,0.000105843284,0.000298598872,0.000488589907
-2.45,1.44780924e-06,1.15008138e-05,3.37833134e-05,9.78382263e-05,0.000283997313,0.000474234648
-2.5,1.44172985e-06,1.13164991e-05,3.27434229e-05,9.09837712e-05,0.000269516631,0.000459943516
-2.55,1.43593047e-06,1.11415175e-05,3.17836934e-05,8.51036981e-05,0.000255175525,0.000445716995
-2.6,1.43039607e-06,1.09751867e-05,3.08950667e-05,8.00259107e-05,0.000241000348,0.00043155573
-2.65,1.42511268e-06,1.08168898e-05,3.00698416e-05,7.56032174e-05,0.000227028245,0.000417460575
-2.7,1.42006729e-06,1.06660674e-05,2.93014187e-05,7.17172755e-05,0.000213311173,0.000403432647
-2.75,1.41524776e-06,1.05222111e-05,2.85841026e-05,6.82750846e-05,0.000199920374,0.000389473401
-2.8,1.41064278e-06,1.03848577e-05,2.79129478e-05,6.52037125e-05,0.000186949873,0.000375584727
-2.85,1.40624175e-06,1.02535843e-05,2.72836362e-05,6.24455214e-05,0.00017451599,0.000361769088
-2.9,1.40203479e-06,1.0128004e-05,2.66923781e-05,5.99544307e-05,0.000162748841,0.000348029692
-2.95,1.39801262e-06,1.0007762e-05,2.61358326e-05,5.76931441e-05,0.000151773546,0.000334370738
-3.0,1.39416656e-06,9.89253256e-06,2.56110417e-05,5.56311178e-05,0.000141685331,0.000320797749
-3.05,1.39048846e-06,9.78201577e-06,2.51153767e-05,5.37430689e-05,0.000132529646,0.000307318021
-3.1,1.38697066e-06,9.67593531e-06,2.46464926e-05,5.20078674e-05,0.000124297515,0.000293941239
-3.15,1.38360597e-06,9.57403602e-06,2.42022908e-05,5.04077024e-05,0.000116936371,0.000280680326
-3.2,1.38038761e-06,9.47608193e-06,2.37808872e-05,4.89274453e-05,0.000110367906,0.000267552563
-3.25,1.37730923e-06,9.38185453e-06,2.33805852e-05,4.75541566e-05,0.000104504298,0.000254581079
-3.3,1.37436481e-06,9.29115112e-06,2.29998529e-05,4.62767002e-05,9.92590374e-05,0.000241796715
-3.35,1.3715487e-06,9.20378346e-06,2.26373034e-05,4.50854369e-05,9.45525966e-05,0.000229240197
-3.4,1.36885555e-06,9.11957645e-06,2.22916781e-05,4.397198e-05,9.03146016e-05,0.000216964296
-3.45,1.36628033e-06,9.03836707e-06,2.1961832e-05,4.29289971e-05,8.64840642e-05,0.000205035196
-3.5,1.36381826e-06,8.96000331e-06,2.1646721e-05,4.19500486e-05,8.3008696e-05,0.00019353171
-3.55,1.36146487e-06,8.88434327e-06,2.13453915e-05,4.10294561e-05,7.98438795e-05,0.000182540629
-3.6,1.35921587e-06,8.81125435e-06,2.10569703e-05,4.01621924e-05,7.69515866e-05,0.000172147327
-3.65,1.35706725e-06,8.74061248e-06,2.07806563e-05,3.93437909e-05,7.4299371e-05,0.000162423221
-3.7,1.35501519e-06,8.6723015e-06,2.05157134e-05,3.85702697e-05,7.18594829e-05,0.000153414439
-3.75,1.35305608e-06,8.60621248e-06,2.02614641e-05,3.78380671e-05,6.96081148e-05,0.000145136254
-3.8,1.3511865e-06,8.54224322e-06,2.00172836e-05,3.71439881e-05,6.75247672e-05,0.000137574761
-3.85,1.3494032e-06,8.48029774e-06,1.97825945e-05,3.6485158e-05,6.55917222e-05,0.000130693698
-3.9,1.3477031e-06,8.4202858e-06,1.95568632e-05,3.58589836e-05,6.37936056e-05,0.000124442925
-3.95,1.34608329e-06,8.36212251e-06,1.93395949e-05,3.52631193e-05,6.21170253e-05,0.000118765942
-4.0,1.34454098e-06,8.30572791e-06,1.91303309e-05,3.46954386e-05,6.05502708e-05,0.00011360535
-4.05,1.34307357e-06,8.2510267e-06,1.89286447e-05,3.41540087e-05,5.90830639e-05,0.000108906241
-4.1,1.34167853e-06,8.19794784e-06,1.87341398e-05,3.36370694e-05,5.77063509e-05,0.000104617995
-4.15,1.34035351e-06,8.14642428e-06,1.85464468e-05,3.31430139e-05,5.64121287e-05,0.000100695003
-4.2,1.33909624e-06,8.09639272e-06,1.83652213e-05,3.26703727e-05,5.51932995e-05,9.70967528e-05
-4.25,1.33790459e-06,8.04779336e-06,1.81901417e-05,3.22177993e-05,5.40435482e-05,9.37875586e-05
-4.3,1.33677651e-06,8.00056964e-06,1.80209073e-05,3.17840573e-05,5.29572384e-05,9.07361336e-05
-4.35,1.33571008e-06,7.95466805e-06,1.7857237e-05,3.13680099e-05,5.19293253e-05,8.79151048e-05
-4.4,1.33470343e-06,7.91003795e-06,1.76988672e-05,3.09686094e-05,5.09552803e-05,8.53005324e-05
-4.45,1.33375483e-06,7.86663137e-06,1.75455511e-05,3.05848893e-05,5.00310277e-05,8.28714635e-05
-4.5,1.3328626e-06,7.82440286e-06,1.73970568e-05,3.02159562e-05,4.91528896e-05,8.06095306e-05
-4.55,1.33202516e-06,7.78330934e-06,1.72531666e-05,2.98609834e-05,4.83175394e-05,7.84986003e-05
-4.6,1.331241e-06,7.74330994e-06,1.71136758e-05,2.95192043e-05,4.75219605e-05,7.65244671e-05
-4.65,1.33050867e-06,7.7043659e-06,1.69783919e-05,2.91899075e-05,4.67634119e-05,7.46745914e-05
-4.7,1.32982681e-06,7.66644039e-06,1.68471336e-05,2.88724317e-05,4.60393972e-05,7.29378742e-05
-4.75,1.32919411e-06,7.62949847e-06,1.67197299e-05,2.85661614e-05,4.53476382e-05,7.13044647e-05
-4.8,1.32860933e-06,7.59350694e-06,1.65960198e-05,2.82705232e-05,4.46860519e-05,6.97655962e-05
-4.85,1.32807128e-06,7.55843423e-06,1.64758512e-05,2.79849822e-05,4.40527298e-05,6.83134458e-05
-4.9,1.32757884e-06,7.52425035e-06,1.63590805e-05,2.77090386e-05,4.34459204e-05,6.6941014e-05
-4.95,1.32713093e-06,7.49092677e-06,1.62455721e-05,2.74422252e-05,4.2864013e-05,6.56420219e-05
-5.0,1.32672653e-06,7.45843634e-06,1.61351977e-05,2.71841049e-05,4.23055247e-05,6.4410823e-05
-5.05,1.32636466e-06,7.42675324e-06,1.60278359e-05,2.6934268e-05,4.17690872e-05,6.32423269e-05
-5.1,1.32604438e-06,7.39585287e-06,1.59233721e-05,2.66923302e-05,4.12534364e-05,6.21319336e-05
-5.15,1.32576481e-06,7.36571183e-06,1.58216974e-05,2.6457931e-05,4.07574027e-05,6.10754772e-05
-5.2,1.32552511e-06,7.33630781e-06,1.57227089e-05,2.62307314e-05,4.02799025e-05,6.00691761e-05
-5.25,1.32532445e-06,7.30761956e-06,1.56263089e-05,2.60104131e-05,3.98199299e-05,5.91095906e-05
-5.3,1.32516207e-06,7.27962683e-06,1.55324048e-05,2.57966761e-05,3.93765507e-05,5.81935854e-05
-5.35,1.32503724e-06,7.25231031e-06,1.54409089e-05,2.55892382e-05,3.89488955e-05,5.73182971e-05
-5.4,1.32494924e-06,7.22565159e-06,1.53517377e-05,2.53878333e-05,3.85361547e-05,5.64811058e-05
-5.45,1.3248974e-06,7.19963309e-06,1.52648123e-05,2.51922105e-05,3.81375732e-05,5.56796097e-05
-5.5,1.32488109e-06,7.17423806e-06,1.51800574e-05,2.5002133e-05,3.7752446e-05,5.49116033e-05
-5.55,1.3248997e-06,7.1494505e-06,1.50974017e-05,2.48173772e-05,3.7380114e-05,5.41750579e-05
-5.6,1.32495262e-06,7.12525513e-06,1.50167772e-05,2.46377318e-05,3.70199609e-05,5.34681041e-05
-5.65,1.32503931e-06,7.10163735e-06,1.49381197e-05,2.4462997e-05,3.66714092e-05,5.27890171e-05
-5.7,1.32515922e-06,7.07858323e-06,1.48613676e-05,2.4292984e-05,3.63339176e-05,5.21362027e-05
-5.75,1.32531184e-06,7.05607944e-06,1.47864627e-05,2.4127514e-05,3.60069781e-05,5.15081851e-05
-5.8,1.32549669e-06,7.03411323e-06,1.47133494e-05,2.39664176e-05,3.56901138e-05,5.09035969e-05
-5.85,1.32571329e-06,7.01267243e-06,1.4641975e-05,2.38095345e-05,3.53828763e-05,5.03211685e-05
-5.9,1.32596119e-06,6.99174536e-06,1.45722891e-05,2.36567128e-05,3.50848437e-05,4.97597204e-05
-5.95,1.32623995e-06,6.97132087e-06,1.45042438e-05,2.35078084e-05,3.4795619e-05,4.92181548e-05
-6.0,1.32654918e-06,6.95138828e-06,1.44377935e-05,2.33626847e-05,3.45148281e-05,4.86954491e-05
-6.05,1.32688846e-06,6.93193734e-06,1.43728947e-05,2.3221212e-05,3.42421184e-05,4.81906494e-05
-6.1,1.32725741e-06,6.91295824e-06,1.43095059e-05,2.30832673e-05,3.3977157e-05,4.77028651e-05
-6.15,1.32765568e-06,6.89444157e-06,1.42475876e-05,2.29487337e-05,3.37196301e-05,4.72312635e-05
-6.2,1.3280829e-06,6.87637832e-06,1.4187102e-05,2.28175005e-05,3.34692409e-05,4.67750657e-05
-6.25,1.32853875e-06,6.85875982e-06,1.41280133e-05,2.26894622e-05,3.32257092e-05,4.63335419e-05
-6.3,1.32902289e-06,6.84157775e-06,1.40702871e-05,2.25645185e-05,3.29887698e-05,4.59060079e-05
-6.35,1.32953502e-06,6.82482413e-06,1.40138906e-05,2.24425745e-05,3.27581722e-05,4.5491822e-05
-6.4,1.33007482e-06,6.80849127e-06,1.39587925e-05,2.23235394e-05,3.2533679e-05,4.5090381e-05
-6.45,1.33064202e-06,6.7925718e-06,1.39049629e-05,2.22073273e-05,3.23150654e-05,4.47011182e-05
-6.5,1.33123633e-06,6.77705861e-06,1.38523732e-05,2.20938563e-05,3.21021188e-05,4.43235007e-05
-6.55,1.33185749e-06,6.76194485e-06,1.38009961e-05,2.19830483e-05,3.18946374e-05,4.39570263e-05
-6.6,1.33250522e-06,6.74722394e-06,1.37508054e-05,2.18748293e-05,3.169243e-05,4.36012225e-05
