vds,vb1,vb2,vb3,vb4,vb5,vb6
0.0,6.58196329e-05,0.000244329899,0.000384059384,0.000500715912,0.000599980315,0.000686933243
-0.05,5.48968871e-05,0.000232635628,0.000372929759,0.000490147533,0.000589899099,0.000677262551
-0.1,4.41146441e-05,0.000221020338,0.000361865194,0.000479634906,0.000579866932,0.000667635884
-0.15,3.35409491e-05,0.000209483702,0.000350865322,0.000469177735,0.000569883565,0.000658053032
-0.2,2.33822952e-05,0.000198025476,0.000339929786,0.000458775721,0.000559948753,0.000648513785
-0.25,1.42682696e-05,0.000186645527,0.000329058235,0.000448428574,0.000550062252,0.000639017934
-0.3,7.57543585e-06,0.000175343882,0.00031825033,0.000438136001,0.000540223817,0.00062956527
-0.35,4.15912237e-06,0.000164120803,0.000307505741,0.000427897717,0.000530433209,0.000620155587
-0.4,2.84836079e-06,0.000152976904,0.000296824154,0.000417713436,0.000520690187,0.000610788679
-0.45,2.34034759e-06,0.000141913333,0.000286205271,0.000407582878,0.000510994513,0.000601464341
-0.5,2.10207777e-06,0.000130932088,0.000275648813,0.000397505765,0.00050134595,0.00059218237
-0.55,1.96425004e-06,0.000120036541,0.000265154529,0.000387481825,0.000491744264,0.000582942563
-0.6,1.87054169e-06,0.000109232362,0.0002547222,0.00037751079,0.00048218922,0.000573744719
-0.65,1.79964751e-06,9.85292e-05,0.000244351649,0.000367592396,0.000472680589,0.000564588637
-0.7,1.74232777e-06,8.79438145e-05,0.000234042751,0.000357726387,0.00046321814,0.000555474118
-0.75,1.69403468e-06,7.75060735e-05,0.000223795454,0.000347912514,0.000453801648,0.000546400964
-0.8,1.65226401e-06,6.72705482e-05,0.000213609798,0.000338150535,0.000444430887,0.000537368978
-0.85,1.61549718e-06,5.73383804e-05,0.000203485952,0.000328440219,0.000435105636,0.000528377964
-0.9,1.58273629e-06,4.78942822e-05,0.000193424257,0.000318781344,0.000425825676,0.000519427729
-0.95,1.55328161e-06,3.92503679e-05,0.000183425297,0.000309173704,0.000416590792,0.00051051808
-1.0,1.52661674e-06,3.18383657e-05,0.000173489996,0.000299617109,0.000407400771,0.000501648826
-1.05,1.50234513e-06,2.60402273e-05,0.000163619773,0.000290111385,0.000398255405,0.000492819778
-1.1,1.4801527e-06,2.19076491e-05,0.000153816773,0.000280656387,0.00038915449,0.000484030748
-1.15,1.4597847e-06,1.91133742e-05,0.00014408422,0.000271251994,0.000380097828,0.000475281551
-1.2,1.44103056e-06,1.72096326e-05,0.000134427001,0.000261898125,0.000371085226,0.000466572003
-1.25,1.42371364e-06,1.58466787e-05,0.000124852582,0.000252594743,0.000362116496,0.000457901923
-1.3,1.4076839e-06,1.4810051e-05,0.000115372538,0.000243341868,0.000353191458,0.000449271133
-1.35,1.39281267e-06,1.39793267e-05,0.000106005076,0.000234139597,0.000344309941,0.000440679456
-1.4,1.37898864e-06,1.32870869e-05,9.67792261e-05,0.000224988121,0.000335471783,0.000432126719
-1.45,1.36611486e-06,1.26940437e-05,8.77416219e-05,0.000215887758,0.000326676831,0.000423612752
-1.5,1.35410632e-06,1.21759402e-05,7.8966764e-05,0.000206838997,0.000317924948,0.000415137388
-1.55,1.34288814e-06,1.17168604e-05,7.05701071e-05,0.000197842553,0.000309216009,0.000406700464
-1.6,1.33239397e-06,1.13057593e-05,6.27178048e-05,0.000188899453,0.000300549909,0.000398301821
-1.65,1.32256482e-06,1.09345959e-05,5.56162114e-05,0.000180011154,0.000291926563,0.000389941305
-1.7,1.31334801e-06,1.0597282e-05,4.94597112e-05,0.00017117972,0.000283345914,0.000381618765
-1.75,1.30469632e-06,1.02890613e-05,4.43462435e-05,0.00016240808,0.000274807933,0.000373334057
-1.8,1.29656732e-06,1.00061243e-05,4.02261385e-05,0.000153700413,0.000266312633,0.000365087045
-1.85,1.28892273e-06,9.7453587e-06,3.69369243e-05,0.000145062735,0.000257860074,0.000356877596
-1.9,1.28172793e-06,9.50418153e-06,3.42848187e-05,0.000136503789,0.000249450375,0.000348705587
-1.95,1.27495153e-06,9.28042077e-06,3.21029364e-05,0.000128036409,0.000241083732,0.000340570904
-2.0,1.26856501e-06,9.07223048e-06,3.02680263e-05,0.000119679578,0.000232760439,0.000332473443
-2.05,1.26254235e-06,8.87802765e-06,2.8694555e-05,0.00011146146,0.000224480911,0.000324413113
-2.1,1.25685983e-06,8.69644423e-06,2.73237178e-05,0.000103423585,0.00021624573,0.000316389835
-2.15,1.25149571e-06,8.52629002e-06,2.61143389e-05,9.56258414e-05,0.000208055687,0.000308403547
-2.2,1.24643007e-06,8.36652347e-06,2.50367156e-05,8.81505638e-05,0.000199911859,0.000300454206
-2.25,1.24164462e-06,8.21622831e-06,2.40687295e-05,8.11014512e-05,0.000191815702,0.000292541794
-2.3,1.23712252e-06,8.0745947e-06,2.31934209e-05,7.45911527e-05,0.000183769191,0.000284666316
-2.35,1.23284824e-06,7.94090381e-06,2.23974545e-05,6.87150713e-05,0.000175775008,0.000276827814
-2.4,1.22880744e-06,7.81451508e-06,2.16701233e-05,6.35214542e-05,0.00016783682,0.000269026367
-2.45,1.22498688e-06,7.69485566e-06,2.10026816e-05,5.89976764e-05,0.000159959673,0.000261262104
-2.5,1.22137427e-06,7.58141156e-06,2.03878832e-05,5.50822356e-05,0.000152150554,0.000253535212
-2.55,1.21795823e-06,7.47372015e-06,1.98196532e-05,5.16906352e-05,0.000144419198,0.000245845954
-2.6,1.21472818e-06,7.37136383e-06,1.92928474e-05,4.87375124e-05,0.000136779216,0.000238194683
-2.65,1.21167428e-06,7.27396464e-06,1.88030725e-05,4.6147932e-05,0.000129249623,0.000230581868
-2.7,1.20878737e-06,7.1811796e-06,1.83465485e-05,4.3860265e-05,0.00012185675,0.000223008125
-2.75,1.20605892e-06,7.09269675e-06,1.79200016e-05,4.18250806e-05,0.000114636325,0.000215474254
-2.8,1.20348095e-06,7.00823166e-06,1.75205803e-05,4.00029007e-05,0.000107634995,0.000207981294
-2.85,1.20104602e-06,6.92752447e-06,1.71457874e-05,3.83620237e-05,0.000100909929,0.00020053059
-2.9,1.19874716e-06,6.8503373e-06,1.67934261e-05,3.68767566e-05,9.45247152e-05,0.000193123888
-2.95,1.19657785e-06,6.7764519e-06,1.6461555e-05,3.55260639e-05,8.85407107e-05,0.000185763451
-3.0,1.19453196e-06,6.70566772e-06,1.61484517e-05,3.4292553e-05,8.30057927e-05,0.000178452228
-3.05,1.19260377e-06,6.63780012e-06,1.58525826e-05,3.31617125e-05,7.7945295e-05,0.00017119407
-3.1,1.19078789e-06,6.57267881e-06,1.55725773e-05,3.21213343e-05,7.33593869e-05,0.000163994016
-3.15,1.18907925e-06,6.51014651e-06,1.53072072e-05,3.11610718e-05,6.92271294e-05,0.000156858681
-3.2,1.18747309e-06,6.45005769e-06,1.50553677e-05,3.02720958e-05,6.55139251e-05,0.000149796765
-3.25,1.18596494e-06,6.39227754e-06,1.48160629e-05,2.94468257e-05,6.21788107e-05,0.000142819715
-3.3,1.18455056e-06,6.33668095e-06,1.45883922e-05,2.8678716e-05,5.91797847e-05,0.000135942586
-3.35,1.18322598e-06,6.28315169e-06,1.43715393e-05,2.79620852e-05,5.6476978e-05,0.000129185113
-3.4,1.18198743e-06,6.23158163e-06,1.41647628e-05,2.72919782e-05,5.40341859e-05,0.000122572953
-3.45,1.18083139e-06,6.18187004e-06,1.39673871e-05,2.66640534e-05,5.18193707e-05,0.0001161388
-3.5,1.17975449e-06,6.13392295e-06,1.37787959e-05,2.60744912e-05,4.98046003e-05,0.00010992262
-3.55,1.17875358e-06,6.08765266e-06,1.35984257e-05,2.55199181e-05,4.79657157e-05,0.000103969809
-3.6,1.17782567e-06,6.04297715e-06,1.34257597e-05,2.4997343e-05,4.62818988e-05,9.83263684e-05
-3.65,1.17696792e-06,5.99981969e-06,1.3260324e-05,2.45041052e-05,4.47352272e-05,9.30318237e-05
-3.7,1.17617765e-06,5.95810839e-06,1.31016824e-05,2.40378298e-05,4.3310259e-05,8.8112598e-05
-3.75,1.17545234e-06,5.91777584e-06,1.29494331e-05,2.35963907e-05,4.19936636e-05,8.35786552e-05
-3.8,1.17478957e-06,5.87875877e-06,1.28032054e-05,2.31778786e-05,4.07739025e-05,7.94242774e-05
-3.85,1.17418708e-06,5.84099776e-06,1.26626567e-05,2.27805744e-05,3.96409586e-05,7.56316859e-05
-3.9,1.1736427e-06,5.80443692e-06,1.25274696e-05,2.24029261e-05,3.85861062e-05,7.21755412e-05
-3.95,1.17315439e-06,5.76902366e-06,1.23973503e-05,2.20435289e-05,3.76017192e-05,6.90269114e-05
-4.0,1.17272022e-06,5.73470845e-06,1.22720257e-05,2.17011082e-05,3.66811095e-05,6.61561526e-05
-4.05,1.17233833e-06,5.70144462e-06,1.21512422e-05,2.13745053e-05,3.58183916e-05,6.3534715e-05
-4.1,1.17200698e-06,5.66918815e-06,1.20347635e-05,2.10626639e-05,3.50083693e-05,6.11361183e-05
-4.15,1.17172452e-06,5.63789748e-06,1.19223697e-05,2.07646195e-05,3.424644e-05,5.89363706e-05
-4.2,1.17148936e-06,5.60753337e-06,1.18138553e-05,2.04794896e-05,3.35285136e-05,5.69140478e-05
-4.25,1.17130002e-06,5.57805873e-06,1.17090287e-05,2.02064653e-05,3.28509453e-05,5.5050186e-05
-4.3,1.17115507e-06,5.54943849e-06,1.16077105e-05,1.99448032e-05,3.22104767e-05,5.33280817e-05
-4.35,1.17105317e-06,5.52163948e-06,1.15097327e-05,1.96938199e-05,3.16041872e-05,5.17330578e-05
-4.4,1.17099303e-06,5.49463027e-06,1.14149382e-05,1.94528851e-05,3.10294518e-05,5.02522262e-05
-4.45,1.17097343e-06,5.46838113e-06,1.13231793e-05,1.92214174e-05,3.04839051e-05,4.88742643e-05
-4.5,1.17099322e-06,5.44286385e-06,1.12343176e-05,1.89988789e-05,2.99654101e-05,4.75892116e-05
-4.55,1.1710513e-06,5.41805172e-06,1.1148223e-05,1.87847719e-05,2.94720319e-05,4.63882905e-05
-4.6,1.17114662e-06,5.39391938e-06,1.1064773e-05,1.85786347e-05,2.90020142e-05,4.52637483e-05
-4.65,1.17127819e-06,5.37044277e-06,1.09838524e-05,1.83800386e-05,2.85537598e-05,4.42087222e-05
-4.7,1.17144507e-06,5.34759907e-06,1.09053528e-05,1.81885854e-05,2.81258126e-05,4.32171211e-05
-4.75,1.17164635e-06,5.3253666e-06,1.08291719e-05,1.80039039e-05,2.7716843e-05,4.22835256e-05
-4.8,1.17188119e-06,5.30372476e-06,1.07552132e-05,1.78256485e-05,2.7325634e-05,4.1403101e-05
-4.85,1.17214876e-06,5.28265397e-06,1.06833857e-05,1.76534966e-05,2.695107e-05,4.05715237e-05
-4.9,1.17244831e-06,5.26213563e-06,1.06136033e-05,1.74871469e-05,2.65921264e-05,3.97849169e-05
-4.95,1.17277909e-06,5.24215204e-06,1.05457849e-05,1.73263176e-05,2.62478606e-05,3.90397962e-05
-5.0,1.17314041e-06,5.22268639e-06,1.04798535e-05,1.71707447e-05,2.59174039e-05,3.83330222e-05
-5.05,1.1735316e-06,5.20372265e-06,1.04157364e-05,1.70201812e-05,2.55999545e-05,3.76617596e-05
-5.1,1.17395204e-06,5.18524558e-06,1.03533649e-05,1.68743951e-05,2.52947712e-05,3.70234421e-05
-5.15,1.17440112e-06,5.16724068e-06,1.02926736e-05,1.67331688e-05,2.50011678e-05,3.64157419e-05
-5.2,1.17487827e-06,5.14969413e-06,1.02336009e-05,1.65962976e-05,2.47185083e-05,3.58365426e-05
-5.25,1.17538295e-06,5.13259277e-06,1.01760883e-05,1.64635894e-05,2.4446202e-05,3.52839164e-05
-5.3,1.17591464e-06,5.11592406e-06,1.01200801e-05,1.63348629e-05,2.41837001e-05,3.4756104e-05
-5.35,1.17647286e-06,5.09967604e-06,1.00655237e-05,1.62099478e-05,2.39304916e-05,3.42514962e-05
-5.4,1.17705713e-06,5.08383732e-06,1.00123691e-05,1.60886833e-05,2.36861005e-05,3.37686191e-05
-5.45,1.17766701e-06,5.06839703e-06,9.96056885e-06,1.59709178e-05,2.34500825e-05,3.33061197e-05
-5.5,1.17830208e-06,5.05334482e-06,9.91007791e-06,1.58565082e-05,2.32220229e-05,3.28627544e-05
-5.55,1.17896193e-06,5.03867079e-06,9.86085342e-06,1.57453196e-05,2.30015337e-05,3.24373777e-05
-5.6,1.17964619e-06,5.0243655e-06,9.81285469e-06,1.56372242e-05,2.27882519e-05,3.20289335e-05
-5.65,1.18035448e-06,5.01041994e-06,9.76604303e-06,1.55321013e-05,2.25818374e-05,3.16364458e-05
-5.7,1.18108647e-06,4.99682551e-06,9.72038166e-06,1.54298367e-05,2.23819713e-05,3.12590122e-05
-5.75,1.18184182e-06,4.98357399e-06,9.67583558e-06,1.53303225e-05,2.21883542e-05,3.08957962e-05
-5.8,1.18262021e-06,4.97065753e-06,9.6323715e-06,1.52334563e-05,2.20007048e-05,3.05460222e-05
-5.85,1.18342135e-06,4.95806862e-06,9.58995773e-06,1.51391412e-05,2.18187587e-05,3.02089696e-05
-5.9,1.18424495e-06,4.94580008e-06,9.54856411e-06,1.50472854e-05,2.16422672e-05,2.9883968e-05
-5.95,1.18509074e-06,4.93384504e-06,9.50816192e-06,1.49578019e-05,2.1470996e-05,2.95703935e-05
-6.0,1.18595846e-06,4.92219693e-06,9.46872381e-06,1.48706079e-05,2.13047244e-05,2.92676641e-05
-6.05,1.18684787e-06,4.91084947e-06,9.43022369e-06,1.47856253e-05,2.11432441e-05,2.89752367e-05
-6.1,1.18775872e-06,4.89979662e-06,9.39263675e-06,1.47027797e-05,2.09863588e-05,2.86926037e-05
-6.15,1.1886908e-06,4.88903263e-06,9.35593929e-06,1.46220005e-05,2.08338831e-05,2.84192906e-05
-6.2,1.18964389e-06,4.87855195e-06,9.32010874e-06,1.45432208e-05,2.06856417e-05,2.81548529e-05
-6.25,1.19061778e-06,4.86834929e-06,9.28512357e-06,1.44663768e-05,2.05414693e-05,2.7898874e-05
-6.3,1.19161228e-06,4.85841955e-06,9.25096322e-06,1.43914081e-05,2.04012092e-05,2.76509632e-05
-6.35,1.1926272e-06,4.84875786e-06,9.21760808e-06,1.43182571e-05,2.02647132e-05,2.74107536e-05
-6.4,1.19366237e-06,4.83935951e-06,9.18503943e-06,1.42468694e-05,2.01318414e-05,2.71779006e-05
-6.45,1.1947176e-06,4.83022001e-06,9.1532394e-06,1.41771928e-05,2.00024608e-05,2.695208e-05
-6.5,1.19579275e-06,4.82133502e-06,9.12219088e-06,1.4109178e-05,1.98764459e-05,2.67329867e-05
-6.55,1.19688765e-06,4.81270037e-06,9.09187756e-06,1.40427779e-05,1.97536773e-05,2.65203333e-05
-6.6,1.19800215e-06,4.80431205e-06,9.06228382e-06,1.39779479e-05,1.96340423e-05,2.63138491e-05
