vds,vb1,vb2,vb3,vb4,vb5,vb6
0.0,8.11008979e-07,3.90607561e-06,6.61458316e-06,8.98563346e-06,1.11589575e-05,1.31707485e-05
-0.05,6.18586913e-07,3.69196876e-06,6.41243338e-06,8.79567425e-06,1.09795591e-05,1.3000392e-05
-0.1,4.29308588e-07,3.47798228e-06,6.2103735e-06,8.60579416e-06,1.0800233e-05,1.28301026e-05
-0.15,2.50907987e-07,3.26412333e-06,6.00840409e-06,8.41599327e-06,1.06209791e-05,1.26598803e-05
-0.2,1.09088925e-07,3.050402e-06,5.80652583e-06,8.2262717e-06,1.04417974e-05,1.2489725e-05
-0.25,3.63254721e-08,2.83683293e-06,5.60473959e-06,8.03662957e-06,1.0262688e-05,1.23196368e-05
-0.3,1.29309124e-08,2.62343772e-06,5.40304642e-06,7.84706706e-06,1.00836509e-05,1.21496157e-05
-0.35,5.99356922e-09,2.410249e-06,5.20144762e-06,7.65758434e-06,9.90468605e-06,1.19796615e-05
-0.4,3.5623911e-09,2.19731749e-06,4.99994485e-06,7.46818166e-06,9.72579356e-06,1.18097743e-05
-0.45,2.52949617e-09,1.98472436e-06,4.79854015e-06,7.27885929e-06,9.54697346e-06,1.16399541e-05
-0.5,2.01392685e-09,1.77260398e-06,4.59723611e-06,7.08961755e-06,9.36822579e-06,1.14702009e-05
-0.55,1.7212697e-09,1.56118706e-06,4.39603604e-06,6.90045683e-06,9.18955062e-06,1.13005147e-05
-0.6,1.53724687e-09,1.35088554e-06,4.19494418e-06,6.71137761e-06,9.01094805e-06,1.11308955e-05
-0.65,1.41171069e-09,1.14246446e-06,3.99396599e-06,6.52238042e-06,8.83241817e-06,1.09613432e-05
-0.7,1.32034987e-09,9.37393802e-07,3.79310865e-06,6.33346593e-06,8.6539611e-06,1.0791858e-05
-0.75,1.25037197e-09,7.38545407e-07,3.59238162e-06,6.14463491e-06,8.47557698e-06,1.06224398e-05
-0.8,1.19456788e-09,5.513872e-07,3.39179757e-06,5.95588831e-06,8.29726598e-06,1.04530886e-05
-0.85,1.14863091e-09,3.85189816e-07,3.19137369e-06,5.76722725e-06,8.11902828e-06,1.02838046e-05
-0.9,1.10985553e-09,2.5169273e-07,2.99113364e-06,5.57865307e-06,7.94086411e-06,1.01145876e-05
-0.95,1.076466e-09,1.58222655e-07,2.79111047e-06,5.39016741e-06,7.76277373e-06,9.94543788e-06
-1.0,1.04725109e-09,1.01013327e-07,2.59135124e-06,5.20177224e-06,7.58475744e-06,9.77635537e-06
-1.05,1.02135618e-09,6.87895806e-08,2.39192416e-06,5.01346999e-06,7.4068156e-06,9.60734017e-06
-1.1,9.98159906e-10,5.09439073e-08,2.1929301e-06,4.82526361e-06,7.22894861e-06,9.43839238e-06
-1.15,9.77198368e-10,4.07474718e-08,1.99452147e-06,4.63715676e-06,7.05115694e-06,9.2695121e-06
-1.2,9.58117001e-10,3.45907988e-08,1.79693372e-06,4.44915399e-06,6.87344114e-06,9.10069943e-06
-1.25,9.40639113e-10,3.0633494e-08,1.60053864e-06,4.26126098e-06,6.69580186e-06,8.93195451e-06
-1.3,9.24544775e-10,2.79304017e-08,1.40593543e-06,4.0734849e-06,6.51823984e-06,8.7632775e-06
-1.35,9.09656307e-10,2.59799166e-08,1.2141049e-06,3.88583488e-06,6.34075594e-06,8.59466857e-06
-1.4,8.95828072e-10,2.45042955e-08,1.02666148e-06,3.69832263e-06,6.16335121e-06,8.42612792e-06
-1.45,8.82939159e-10,2.33427488e-08,8.46225663e-07,3.51096334e-06,5.98602683e-06,8.25765578e-06
-1.5,8.70888038e-10,2.23980723e-08,6.76847852e-07,3.32377691e-06,5.80878422e-06,8.08925241e-06
-1.55,8.59588586e-10,2.16090558e-08,5.24141181e-07,3.13678975e-06,5.63162506e-06,7.92091812e-06
-1.6,8.48967085e-10,2.09356703e-08,3.94396277e-07,2.95003728e-06,5.45455134e-06,7.75265323e-06
-1.65,8.3895992e-10,2.03508139e-08,2.92206218e-07,2.76356768e-06,5.27756543e-06,7.58445814e-06
-1.7,8.29511798e-10,1.98355465e-08,2.17883457e-07,2.57744738e-06,5.10067017e-06,7.41633329e-06
-1.75,8.20574342e-10,1.93762445e-08,1.67232479e-07,2.39176933e-06,4.92386898e-06,7.2482792e-06
-1.8,8.12104978e-10,1.89628487e-08,1.33958417e-07,2.20666557e-06,4.747166e-06,7.08029643e-06
-1.85,8.04066031e-10,1.8587755e-08,1.12235307e-07,2.02232656e-06,4.57056628e-06,6.91238566e-06
-1.9,7.96424005e-10,1.82450916e-08,9.78009173e-08,1.83903116e-06,4.39407598e-06,6.74454765e-06
-1.95,7.89148985e-10,1.79302368e-08,8.78958124e-08,1.65719326e-06,4.21770272e-06,6.57678328e-06
-2.0,7.82214141e-10,1.7639491e-08,8.08302581e-08,1.47743366e-06,4.04145594e-06,6.40909355e-06
-2.05,7.75595324e-10,1.73698462e-08,7.55860735e-08,1.30068827e-06,3.86534745e-06,6.24147965e-06
-2.1,7.69270721e-10,1.71188241e-08,7.15457318e-08,1.12836128e-06,3.68939217e-06,6.07394294e-06
-2.15,7.63220566e-10,1.68843571e-08,6.8327611e-08,9.62515692e-07,3.51360905e-06,5.90648497e-06
-2.2,7.57426894e-10,1.66647018e-08,6.56899218e-08,8.06042525e-07,3.33802242e-06,5.73910761e-06
-2.25,7.51873333e-10,1.64583737e-08,6.34751835e-08,6.62649349e-07,3.16266381e-06,5.57181299e-06
-2.3,7.46544921e-10,1.62640975e-08,6.15778856e-08,5.36407979e-07,2.98757449e-06,5.40460366e-06
-2.35,7.41427958e-10,1.60807692e-08,5.99253433e-08,4.30702379e-07,2.81280908e-06,5.23748259e-06
-2.4,7.36509863e-10,1.59074266e-08,5.84661309e-08,3.4692647e-07,2.63844066e-06,5.07045331e-06
-2.45,7.31779064e-10,1.57432252e-08,5.71629347e-08,2.838248e-07,2.46456813e-06,4.90352002e-06
-2.5,7.27224894e-10,1.55874198e-08,5.59880365e-08,2.38052898e-07,2.2913269e-06,4.73668776e-06
-2.55,7.228375e-10,1.54393496e-08,5.4920393e-08,2.05482705e-07,2.11890447e-06,4.56996255e-06
-2.6,7.18607766e-10,1.52984255e-08,5.39437072e-08,1.82323028e-07,1.94756324e-06,4.40335169e-06
-2.65,7.14527246e-10,1.51641202e-08,5.30451257e-08,1.65622994e-07,1.77767376e-06,4.23686405e-06
-2.7,7.10588095e-10,1.503596e-08,5.2214343e-08,1.53294499e-07,1.60976265e-06,4.07051047e-06
-2.75,7.06783024e-10,1.49135173e-08,5.14429721e-08,1.43932762e-07,1.44457948e-06,3.9043043e-06
-2.8,7.03105246e-10,1.47964055e-08,5.07240954e-08,1.36612789e-07,1.28318504e-06,3.73826209e-06
-2.85,6.9954843e-10,1.46842733e-08,5.0051938e-08,1.30727313e-07,1.12705445e-06,3.5724045e-06
-2.9,6.9610667e-10,1.45768011e-08,4.94216265e-08,1.25874264e-07,9.7816806e-07,3.40675753e-06
-2.95,6.92774444e-10,1.44736969e-08,4.88290081e-08,1.21783326e-07,8.39025031e-07,3.24135417e-06
-3.0,6.89546583e-10,1.43746937e-08,4.82705129e-08,1.18269253e-07,7.1247312e-07,3.07623662e-06
-3.05,6.86418246e-10,1.42795465e-08,4.77430484e-08,1.15202393e-07,6.01256161e-07,2.91145935e-06
-3.1,6.83384892e-10,1.41880298e-08,4.72439159e-08,1.12490008e-07,5.07318623e-07,2.74709329e-06
-3.15,6.80442258e-10,1.40999362e-08,4.67707461e-08,1.10064317e-07,4.31155373e-07,2.58323165e-06
-3.2,6.77586336e-10,1.40150739e-08,4.63214463e-08,1.0787473e-07,3.71611163e-07,2.41999809e-06
-3.25,6.74813358e-10,1.39332659e-08,4.58941586e-08,1.05882725e-07,3.26281118e-07,2.25755803e-06
-3.3,6.72119776e-10,1.3854348e-08,4.54872258e-08,1.0405842e-07,2.92241848e-07,2.09613463e-06
-3.35,6.69502243e-10,1.37781678e-08,4.5099163e-08,1.02378223e-07,2.66699278e-07,1.93603094e-06
-3.4,6.66957607e-10,1.37045837e-08,4.47286347e-08,1.0082321e-07,2.47338516e-07,1.7776604e-06
-3.45,6.64482889e-10,1.3633464e-08,4.43744351e-08,9.93779778e-08,2.32403829e-07,1.62158773e-06
-3.5,6.62075278e-10,1.35646858e-08,4.40354721e-08,9.80298209e-08,2.20631328e-07,1.46858102e-06
-3.55,6.59732115e-10,1.34981346e-08,4.37107532e-08,9.67681314e-08,2.11135773e-07,1.31967253e-06
-3.6,6.57450884e-10,1.34337032e-08,4.3399374e-08,9.55839564e-08,2.03303567e-07,1.17621702e-06
-3.65,6.55229206e-10,1.33712913e-08,4.31005082e-08,9.44696654e-08,1.96708993e-07,1.03992201e-06
-3.7,6.53064824e-10,1.33108051e-08,4.28133989e-08,9.34186973e-08,1.91054195e-07,9.12804235e-07
-3.75,6.50955602e-10,1.32521565e-08,4.2537351e-08,9.24253657e-08,1.86128021e-07,7.97016057e-07
-3.8,6.48899512e-10,1.31952629e-08,4.22717251e-08,9.14847066e-08,1.81778369e-07,6.94510813e-07
-3.85,6.4689463e-10,1.31400466e-08,4.20159316e-08,9.05923589e-08,1.77893742e-07,6.06603206e-07
-3.9,6.44939131e-10,1.30864346e-08,4.17694256e-08,8.97444684e-08,1.74390912e-07,5.33594926e-07
-3.95,6.43031278e-10,1.3034358e-08,4.15317032e-08,8.89376111e-08,1.71206622e-07,4.74667008e-07
-4.0,6.41169424e-10,1.29837521e-08,4.13022968e-08,8.81687304e-08,1.6829194e-07,4.28109859e-07
-4.05,6.39351999e-10,1.29345558e-08,4.10807725e-08,8.74350857e-08,1.65608372e-07,3.91762069e-07
-4.1,6.37577511e-10,1.28867113e-08,4.08667265e-08,8.67342098e-08,1.6312516e-07,3.63442077e-07
-4.15,6.35844541e-10,1.28401642e-08,4.0659783e-08,8.60638736e-08,1.60817357e-07,3.41229743e-07
-4.2,6.34151735e-10,1.27948629e-08,4.04595912e-08,8.54220562e-08,1.58664457e-07,3.23578532e-07
-4.25,6.32497804e-10,1.27507589e-08,4.02658237e-08,8.48069198e-08,1.56649398e-07,3.09311314e-07
-4.3,6.30881521e-10,1.27078058e-08,4.00781743e-08,8.42167882e-08,1.54757815e-07,2.97561813e-07
-4.35,6.29301713e-10,1.26659601e-08,3.98963561e-08,8.36501288e-08,1.52977499e-07,2.87703436e-07
-4.4,6.27757264e-10,1.26251803e-08,3.97201005e-08,8.31055363e-08,1.51297971e-07,2.79285499e-07
-4.45,6.26247106e-10,1.25854273e-08,3.95491554e-08,8.25817195e-08,1.49710165e-07,2.71983026e-07
-4.5,6.2477022e-10,1.25466637e-08,3.9383284e-08,8.20774894e-08,1.48206177e-07,2.65559787e-07
-4.55,6.23325635e-10,1.25088541e-08,3.92222635e-08,8.15917488e-08,1.46779071e-07,2.59842029e-07
-4.6,6.2191242e-10,1.2471965e-08,3.90658844e-08,8.11234834e-08,1.45422723e-07,2.54700145e-07
-4.65,6.20529685e-10,1.24359645e-08,3.89139493e-08,8.06717536e-08,1.44131695e-07,2.50035964e-07
-4.7,6.19176582e-10,1.24008221e-08,3.87662723e-08,8.02356879e-08,1.42901134e-07,2.45773938e-07
-4.75,6.17852296e-10,1.2366509e-08,3.86226776e-08,7.98144763e-08,1.41726691e-07,2.41855001e-07
-4.8,6.16556049e-10,1.23329977e-08,3.84829996e-08,7.94073649e-08,1.40604451e-07,2.38232254e-07
-4.85,6.15287095e-10,1.2300262e-08,3.83470815e-08,7.90136511e-08,1.39530878e-07,2.34867911e-07
-4.9,6.14044719e-10,1.2268277e-08,3.82147753e-08,7.86326794e-08,1.38502764e-07,2.31731101e-07
-4.95,6.12828238e-10,1.22370189e-08,3.80859407e-08,7.82638369e-08,1.37517192e-07,2.28796278e-07
-5.0,6.11636995e-10,1.2206465e-08,3.7960445e-08,7.79065504e-08,1.36571503e-07,2.26042053e-07
-5.05,6.1047036e-10,1.21765936e-08,3.78381624e-08,7.75602826e-08,1.35663263e-07,2.2345032e-07
-5.1,6.09327728e-10,1.21473843e-08,3.77189737e-08,7.72245301e-08,1.3479024e-07,2.21005602e-07
-5.15,6.08208521e-10,1.21188171e-08,3.76027657e-08,7.68988199e-08,1.33950383e-07,2.18694554e-07
-5.2,6.0711218e-10,1.20908734e-08,3.7489431e-08,7.65827077e-08,1.33141804e-07,2.16505576e-07
-5.25,6.06038171e-10,1.20635352e-08,3.73788677e-08,7.62757755e-08,1.32362757e-07,2.14428507e-07
-5.3,6.04985979e-10,1.20367852e-08,3.72709788e-08,7.59776296e-08,1.31611632e-07,2.12454397e-07
-5.35,6.0395511e-10,1.2010607e-08,3.71656722e-08,7.56878993e-08,1.30886932e-07,2.10575308e-07
-5.4,6.02945086e-10,1.1984985e-08,3.70628603e-08,7.54062346e-08,1.30187272e-07,2.08784169e-07
-5.45,6.0195545e-10,1.1959904e-08,3.69624598e-08,7.51323055e-08,1.29511362e-07,2.07074645e-07
-5.5,6.00985761e-10,1.19353496e-08,3.68643911e-08,7.48657998e-08,1.28858002e-07,2.05441041e-07
-5.55,6.00035594e-10,1.1911308e-08,3.67685787e-08,7.46064227e-08,1.28226074e-07,2.03878212e-07
-5.6,5.99104538e-10,1.18877661e-08,3.66749505e-08,7.43538954e-08,1.27614532e-07,2.02381499e-07
-5.65,5.98192199e-10,1.18647112e-08,3.65834379e-08,7.41079535e-08,1.27022401e-07,2.00946662e-07
-5.7,5.97298195e-10,1.1842131e-08,3.64939754e-08,7.3868347e-08,1.26448766e-07,1.99569837e-07
-5.75,5.96422158e-10,1.18200139e-08,3.64065004e-08,7.36348387e-08,1.25892772e-07,1.98247488e-07
-5.8,5.95563733e-10,1.17983488e-08,3.63209532e-08,7.34072038e-08,1.25353613e-07,1.96976376e-07
-5.85,5.94722577e-10,1.17771248e-08,3.6237277e-08,7.31852287e-08,1.24830537e-07,1.9575352e-07
-5.9,5.93898358e-10,1.17563317e-08,3.61554173e-08,7.29687108e-08,1.24322834e-07,1.94576176e-07
-5.95,5.93090753e-10,1.17359596e-08,3.60753222e-08,7.27574577e-08,1.23829836e-07,1.93441811e-07
-6.0,5.92299454e-10,1.17159988e-08,3.59969418e-08,7.25512863e-08,1.23350916e-07,1.92348082e-07
-6.05,5.91524159e-10,1.16964402e-08,3.59202287e-08,7.23500225e-08,1.2288548e-07,1.91292818e-07
-6.1,5.90764577e-10,1.16772751e-08,3.58451374e-08,7.2153501e-08,1.2243297e-07,1.90274004e-07
-6.15,5.90020426e-10,1.16584948e-08,3.57716243e-08,7.1961564e-08,1.21992858e-07,1.89289767e-07
-6.2,5.89291431e-10,1.16400913e-08,3.56996478e-08,7.17740616e-08,1.21564645e-07,1.88338361e-07
-6.25,5.88577329e-10,1.16220565e-08,3.5629168e-08,7.15908508e-08,1.2114786e-07,1.8741816e-07
-6.3,5.8787786e-10,1.1604383e-08,3.55601465e-08,7.14117953e-08,1.20742057e-07,1.86527646e-07
-6.35,5.87192775e-10,1.15870633e-08,3.54925467e-08,7.12367653e-08,1.20346813e-07,1.85665398e-07
-6.4,5.86521831e-10,1.15700904e-08,3.54263335e-08,7.10656368e-08,1.19961728e-07,1.84830086e-07
-6.45,5.85864791e-10,1.15534574e-08,3.5361473e-08,7.08982916e-08,1.19586422e-07,1.84020466e-07
-6.5,5.85221427e-10,1.15371579e-08,3.5297933e-08,7.07346168e-08,1.19220536e-07,1.83235368e-07
-6.55,5.84591514e-10,1.15211852e-08,3.52356822e-08,7.05745047e-08,1.18863727e-07,1.82473695e-07
-6.6,5.83974835e-10,1.15055334e-08,3.51746909e-08,7.04178522e-08,1.18515672e-07,1.81734413e-07
