vds,vb1,vb2,vb3,vb4,vb5,vb6
0.0,8.25093847e-06,4.13102939e-05,6.88386634e-05,9.27426593e-05,0.000113909078,0.000133269392
-0.05,6.21124817e-06,3.90397344e-05,6.67229771e-05,9.07769729e-05,0.000112073429,0.000131544236
-0.1,4.21060918e-06,3.67706442e-05,6.46084087e-05,8.88122678e-05,0.00011023867,0.0001298199
-0.15,2.35031556e-06,3.45030994e-05,6.24949641e-05,8.68485449e-05,0.000108404801,0.000128096383
-0.2,9.49672617e-07,3.22372078e-05,6.03826505e-05,8.48858052e-05,0.00010657182,0.000126373685
-0.25,3.0394528e-07,2.99731257e-05,5.8271477e-05,8.29240499e-05,0.000104739729,0.000124651806
-0.3,1.10464386e-07,2.77110838e-05,5.61614546e-05,8.09632807e-05,0.000102908527,0.000122930745
-0.35,5.30646361e-08,2.54514315e-05,5.40525972e-05,7.90034993e-05,0.000101078214,0.000121210503
-0.4,3.24677404e-08,2.31947123e-05,5.19449221e-05,7.7044708e-05,9.92487908e-05,0.000119491078
-0.45,2.35038558e-08,2.09417971e-05,4.98384512e-05,7.50869097e-05,9.74202577e-05,0.000117772471
-0.5,1.89386329e-08,1.869413e-05,4.7733212e-05,7.31301076e-05,9.55926152e-05,0.000116054681
-0.55,1.63053391e-08,1.64541938e-05,4.56292397e-05,7.11743056e-05,9.37658637e-05,0.000114337709
-0.6,1.46286407e-08,1.42264296e-05,4.35265795e-05,6.92195083e-05,9.19400041e-05,0.000112621555
-0.65,1.34737631e-08,1.2019099e-05,4.142529e-05,6.72657215e-05,9.01150374e-05,0.000110906218
-0.7,1.26271331e-08,9.84809844e-06,3.93254481e-05,6.53129517e-05,8.82909645e-05,0.000109191698
-0.75,1.19751141e-08,7.74450553e-06,3.72271554e-05,6.33612069e-05,8.64677869e-05,0.000107477996
-0.8,1.14530596e-08,5.76741509e-06,3.51305485e-05,6.14104968e-05,8.46455061e-05,0.000105765112
-0.85,1.10220371e-08,4.01647683e-06,3.30358128e-05,5.94608327e-05,8.28241241e-05,0.000104053046
-0.9,1.06574185e-08,2.61614602e-06,3.09432042e-05,5.75122285e-05,8.10036428e-05,0.000102341798
-0.95,1.03429423e-08,1.64091402e-06,2.88530814e-05,5.5564701e-05,7.9184065e-05,0.000100631369
-1.0,1.006746e-08,1.04675899e-06,2.67659561e-05,5.36182705e-05,7.73653935e-05,9.89217598e-05
-1.05,9.82307056e-09,7.12960319e-07,2.46825722e-05,5.16729619e-05,7.55476319e-05,9.72129701e-05
-1.1,9.60400785e-09,5.28232638e-07,2.26040337e-05,4.97288057e-05,7.37307841e-05,9.55050012e-05
-1.15,9.40595322e-09,4.22653257e-07,2.05320138e-05,4.77858395e-05,7.1914855e-05,9.37978538e-05
-1.2,9.22559694e-09,3.58867385e-07,1.84691064e-05,4.58441103e-05,7.00998499e-05,9.2091529e-05
-1.25,9.0603503e-09,3.17850843e-07,1.64194218e-05,4.39036767e-05,6.82857752e-05,9.03860282e-05
-1.3,8.90815178e-09,2.8983108e-07,1.43896048e-05,4.19646128e-05,6.64726385e-05,8.86813527e-05
-1.35,8.76733316e-09,2.69617245e-07,1.23905585e-05,4.00270127e-05,6.46604486e-05,8.69775041e-05
-1.4,8.63652532e-09,2.54332114e-07,1.04402407e-05,3.80909976e-05,6.28492156e-05,8.52744844e-05
-1.45,8.51459031e-09,2.4230831e-07,8.56772298e-06,3.61567245e-05,6.10389516e-05,8.35722957e-05
-1.5,8.40057172e-09,2.32536914e-07,6.81755203e-06,3.42243991e-05,5.9229671e-05,8.18709405e-05
-1.55,8.29365765e-09,2.24382129e-07,5.25029291e-06,3.22942946e-05,5.74213907e-05,8.01704217e-05
-1.6,8.1931527e-09,2.17427937e-07,3.93128205e-06,3.03667776e-05,5.56141306e-05,7.84707425e-05
-1.65,8.09845651e-09,2.11392569e-07,2.9040856e-06,2.84423466e-05,5.38079147e-05,7.67719067e-05
-1.7,8.00904698e-09,2.06079071e-07,2.16511884e-06,2.65216894e-05,5.20027718e-05,7.50739186e-05
-1.75,7.9244672e-09,2.0134577e-07,1.66561582e-06,2.46057686e-05,5.01987364e-05,7.33767831e-05
-1.8,7.84431491e-09,1.97088078e-07,1.33890972e-06,2.26959521e-05,4.83958503e-05,7.16805059e-05
-1.85,7.76823409e-09,1.93226947e-07,1.12582643e-06,2.07942133e-05,4.65941644e-05,6.99850932e-05
-1.9,7.69590813e-09,1.8970136e-07,9.84056328e-07,1.89034426e-05,4.47937411e-05,6.82905527e-05
-1.95,7.6270542e-09,1.86463315e-07,8.86535328e-07,1.70279307e-05,4.29946573e-05,6.65968929e-05
-2.0,7.56141864e-09,1.83474397e-07,8.16779683e-07,1.51741148e-05,4.11970085e-05,6.49041236e-05
-2.05,7.4987731e-09,1.80703399e-07,7.64871131e-07,1.33516998e-05,3.94009142e-05,6.32122562e-05
-2.1,7.43891128e-09,1.78124617e-07,7.24789659e-07,1.15752459e-05,3.76065248e-05,6.15213039e-05
-2.15,7.38164624e-09,1.7571662e-07,6.92807876e-07,9.86613707e-06,3.58140318e-05,5.98312822e-05
-2.2,7.32680807e-09,1.73461348e-07,6.66558413e-07,8.25431651e-06,3.4023681e-05,5.8142209e-05
-2.25,7.27424188e-09,1.71343431e-07,6.44495373e-07,6.77812813e-06,3.22357905e-05,5.64541053e-05
-2.3,7.22380618e-09,1.69349675e-07,6.25580392e-07,5.47957092e-06,3.0450777e-05,5.47669956e-05
-2.35,7.17537134e-09,1.67468661e-07,6.09096466e-07,4.39336497e-06,2.86691914e-05,5.30809091e-05
-2.4,7.12881836e-09,1.65690441e-07,5.94535223e-07,3.53352823e-06,2.68917704e-05,5.139588e-05
-2.45,7.08403775e-09,1.64006291e-07,5.8152711e-07,2.88671735e-06,2.5119511e-05,4.97119494e-05
-2.5,7.0409286e-09,1.62408515e-07,5.69797167e-07,2.41817334e-06,2.33537771e-05,4.80291659e-05
-2.55,6.99939769e-09,1.60890292e-07,5.59136369e-07,2.08523913e-06,2.15964567e-05,4.63475882e-05
-2.6,6.95935879e-09,1.59445543e-07,5.49382654e-07,1.84885887e-06,1.98501907e-05,4.4667287e-05
-2.65,6.92073196e-09,1.58068829e-07,5.40408092e-07,1.67869136e-06,1.81187069e-05,4.29883482e-05
-2.7,6.88344301e-09,1.56755265e-07,5.32110034e-07,1.55329294e-06,1.6407302e-05,4.13108767e-05
-2.75,6.84742297e-09,1.55500446e-07,5.24404896e-07,1.45824939e-06,1.47235145e-05,3.96350013e-05
-2.8,6.81260759e-09,1.54300387e-07,5.17223706e-07,1.38407544e-06,1.30780155e-05,3.79608817e-05
-2.85,6.77893702e-09,1.53151469e-07,5.10508867e-07,1.32454733e-06,1.14856561e-05,3.62887167e-05
-2.9,6.74635535e-09,1.52050402e-07,5.0421176e-07,1.27554663e-06,9.96640586e-06,3.46187562e-05
-2.95,6.71481034e-09,1.5099418e-07,4.98290947e-07,1.23430621e-06,8.54553779e-06,3.29513165e-05
-3.0,6.68425309e-09,1.49980055e-07,4.92710804e-07,1.19893114e-06,7.2519872e-06,3.12868015e-05
-3.05,6.65463779e-09,1.49005504e-07,4.87440464e-07,1.16809628e-06,6.11385922e-06,2.96257315e-05
-3.1,6.62592149e-09,1.4806821e-07,4.82452993e-07,1.14085471e-06,5.15140267e-06,2.79687822e-05
-3.15,6.59806384e-09,1.47166039e-07,4.77724741e-07,1.11651506e-06,4.37028822e-06,2.631684e-05
-3.2,6.57102693e-09,1.46297019e-07,4.73234819e-07,1.09456188e-06,3.75932904e-06,2.46710779e-05
-3.25,6.54477511e-09,1.4545933e-07,4.68964682e-07,1.07460319e-06,3.29434934e-06,2.30330615e-05
-3.3,6.5192748e-09,1.44651283e-07,4.64897788e-07,1.05633527e-06,2.94558782e-06,2.14048986e-05
-3.35,6.49449435e-09,1.43871313e-07,4.61019316e-07,1.03951865e-06,2.68439699e-06,1.97894466e-05
-3.4,6.47040394e-09,1.43117967e-07,4.57315933e-07,1.02396149e-06,2.48693856e-06,1.81905987e-05
-3.45,6.44697539e-09,1.42389889e-07,4.53775604e-07,1.00950781e-06,2.33508601e-06,1.66136706e-05
-3.5,6.4241821e-09,1.41685818e-07,4.50387427e-07,9.96029107e-07,2.21577444e-06,1.5065899e-05
-3.55,6.40199892e-09,1.41004577e-07,4.47141496e-07,9.83418222e-07,2.11985044e-06,1.35570373e-05
-3.6,6.38040206e-09,1.40345066e-07,4.44028783e-07,9.715848e-07,2.04097224e-06,1.20999613e-05
-3.65,6.35936899e-09,1.39706256e-07,4.4104104e-07,9.60451909e-07,1.97474425e-06,1.07110639e-05
-3.7,6.3388784e-09,1.39087183e-07,4.38170711e-07,9.49953461e-07,1.91809543e-06,9.41002707e-06
-3.75,6.31891006e-09,1.38486943e-07,4.35410859e-07,9.40032224e-07,1.86885246e-06,8.21841076e-06
-3.8,6.2994448e-09,1.37904688e-07,4.32755101e-07,9.30638276e-07,1.82545297e-06,7.1566449e-06
-3.85,6.28046443e-09,1.37339621e-07,4.3019755e-07,9.21727791e-07,1.78675413e-06,6.23974356e-06
-3.9,6.26195167e-09,1.36790992e-07,4.27732769e-07,9.13262059e-07,1.75190486e-06,5.47321475e-06
-3.95,6.24389013e-09,1.36258095e-07,4.25355726e-07,9.05206714e-07,1.72025981e-06,4.85124642e-06
-4.0,6.22626421e-09,1.35740267e-07,4.23061754e-07,8.97531092e-07,1.69132096e-06,4.35829693e-06
-4.05,6.20905907e-09,1.35236879e-07,4.20846522e-07,8.90207711e-07,1.66469749e-06,3.97321218e-06
-4.1,6.19226062e-09,1.3474734e-07,4.18705999e-07,8.83211846e-07,1.64007779e-06,3.67374842e-06
-4.15,6.17585542e-09,1.34271092e-07,4.16636431e-07,8.76521161e-07,1.61720972e-06,3.43980514e-06
-4.2,6.15983069e-09,1.33807606e-07,4.14634319e-07,8.70115419e-07,1.59588645e-06,3.25491187e-06
-4.25,6.14417425e-09,1.33356383e-07,4.12696393e-07,8.6397622e-07,1.57593619e-06,3.10639701e-06
-4.3,6.12887448e-09,1.32916949e-07,4.10819595e-07,8.58086787e-07,1.55721463e-06,2.9848792e-06
-4.35,6.11392032e-09,1.32488858e-07,4.09001064e-07,8.52431784e-07,1.53959926e-06,2.88355578e-06
-4.4,6.0993012e-09,1.32071685e-07,4.07238116e-07,8.46997154e-07,1.52298514e-06,2.79753418e-06
-4.45,6.08500705e-09,1.31665028e-07,4.05528233e-07,8.41769982e-07,1.50728156e-06,2.72329328e-06
-4.5,6.07102824e-09,1.31268504e-07,4.03869052e-07,8.36738381e-07,1.49240958e-06,2.65828181e-06
-4.55,6.05735557e-09,1.30881752e-07,4.0225835e-07,8.31891379e-07,1.47829999e-06,2.60063107e-06
-4.6,6.04398027e-09,1.30504428e-07,4.00694033e-07,8.2721884e-07,1.46489174e-06,2.54895385e-06
-4.65,6.03089394e-09,1.30136203e-07,3.99174132e-07,8.22711371e-07,1.45213065e-06,2.50220482e-06
-4.7,6.01808855e-09,1.29776768e-07,3.97696789e-07,8.18360265e-07,1.43996846e-06,2.45958385e-06
-4.75,6.00555642e-09,1.29425825e-07,3.96260251e-07,8.14157428e-07,1.42836191e-06,2.42046873e-06
-4.8,5.99329019e-09,1.29083095e-07,3.94862863e-07,8.10095329e-07,1.41727209e-06,2.38436803e-06
-4.85,5.98128281e-09,1.28748308e-07,3.9350306e-07,8.06166951e-07,1.40666388e-06,2.35088783e-06
-4.9,5.96952756e-09,1.2842121e-07,3.92179363e-07,8.02365743e-07,1.39650546e-06,2.31970783e-06
-4.95,5.95801796e-09,1.28101557e-07,3.90890374e-07,7.98685588e-07,1.38676787e-06,2.2905642e-06
-5.0,5.94674781e-09,1.27789116e-07,3.89634766e-07,7.95120758e-07,1.37742475e-06,2.26323695e-06
-5.05,5.93571118e-09,1.27483668e-07,3.88411285e-07,7.91665892e-07,1.36845196e-06,2.23754057e-06
-5.1,5.92490236e-09,1.27185e-07,3.87218738e-07,7.88315961e-07,1.35982739e-06,2.21331705e-06
-5.15,5.91431587e-09,1.2689291e-07,3.86055998e-07,7.85066243e-07,1.35153073e-06,2.19043058e-06
-5.2,5.90394646e-09,1.26607207e-07,3.84921991e-07,7.81912303e-07,1.34354326e-06,2.16876342e-06
-5.25,5.89378908e-09,1.26327707e-07,3.83815701e-07,7.78849968e-07,1.33584771e-06,2.14821275e-06
-5.3,5.88383886e-09,1.26054233e-07,3.82736159e-07,7.75875309e-07,1.32842813e-06,2.12868814e-06
-5.35,5.87409115e-09,1.25786619e-07,3.81682446e-07,7.72984625e-07,1.32126971e-06,2.11010963e-06
-5.4,5.86454145e-09,1.25524702e-07,3.80653688e-07,7.70174424e-07,1.31435875e-06,2.09240606e-06
-5.45,5.85518544e-09,1.25268329e-07,3.79649051e-07,7.6744141e-07,1.30768248e-06,2.07551382e-06
-5.5,5.84601895e-09,1.25017352e-07,3.78667745e-07,7.64782471e-07,1.30122903e-06,2.05937579e-06
-5.55,5.83703797e-09,1.24771632e-07,3.77709014e-07,7.62194664e-07,1.29498735e-06,2.04394045e-06
-5.6,5.82823864e-09,1.24531032e-07,3.7677214e-07,7.59675206e-07,1.28894709e-06,2.02916119e-06
-5.65,5.81961723e-09,1.24295424e-07,3.75856436e-07,7.57221461e-07,1.2830986e-06,2.01499564e-06
-5.7,5.81117014e-09,1.24064682e-07,3.7496125e-07,7.54830933e-07,1.27743284e-06,2.00140522e-06
-5.75,5.80289389e-09,1.23838688e-07,3.74085958e-07,7.52501257e-07,1.27194136e-06,1.98835468e-06
-5.8,5.79478515e-09,1.23617328e-07,3.73229965e-07,7.50230189e-07,1.2666162e-06,1.97581172e-06
-5.85,5.78684066e-09,1.23400492e-07,3.72392703e-07,7.48015601e-07,1.26144992e-06,1.96374665e-06
-5.9,5.7790573e-09,1.23188074e-07,3.71573628e-07,7.45855471e-07,1.25643549e-06,1.95213218e-06
-5.95,5.77143203e-09,1.22979973e-07,3.70772223e-07,7.43747879e-07,1.25156633e-06,1.94094309e-06
-6.0,5.76396193e-09,1.22776092e-07,3.69987992e-07,7.41691001e-07,1.24683623e-06,1.9301561e-06
-6.05,5.75664416e-09,1.22576337e-07,3.6922046e-07,7.39683101e-07,1.24223932e-06,1.91974963e-06
-6.1,5.74947597e-09,1.22380617e-07,3.68469175e-07,7.37722528e-07,1.23777009e-06,1.90970367e-06
-6.15,5.7424547e-09,1.22188847e-07,3.67733702e-07,7.35807713e-07,1.23342333e-06,1.89999961e-06
-6.2,5.73557776e-09,1.22000943e-07,3.67013625e-07,7.33937159e-07,1.22919411e-06,1.89062014e-06
-6.25,5.72884266e-09,1.21816824e-07,3.66308547e-07,7.32109441e-07,1.22507776e-06,1.88154913e-06
-6.3,5.72224695e-09,1.21636412e-07,3.65618086e-07,7.30323202e-07,1.22106989e-06,1.87277151e-06
-6.35,5.71578828e-09,1.21459633e-07,3.64941877e-07,7.28577146e-07,1.21716632e-06,1.86427319e-06
-6.4,5.70946435e-09,1.21286415e-07,3.64279569e-07,7.26870039e-07,1.21336309e-06,1.85604102e-06
-6.45,5.70327293e-09,1.21116687e-07,3.63630827e-07,7.25200704e-07,1.20965646e-06,1.84806263e-06
-6.5,5.69721186e-09,1.20950383e-07,3.62995326e-07,7.23568015e-07,1.20604288e-06,1.84032645e-06
-6.55,5.69127902e-09,1.20787437e-07,3.62372758e-07,7.219709e-07,1.20251896e-06,1.8328216e-06
-6.6,5.68547237e-09,1.20627787e-07,3.61762825e-07,7.20408331e-07,1.19908151e-06,1.82553787e-06
