vds,vb1,vb2,vb3,vb4,vb5,vb6
0.0,5.63435094e-05,0.000219907129,0.000348259744,0.000452393976,0.000541820082,0.000622627199
-0.05,4.64888736e-05,0.000209296431,0.000338176772,0.000442843564,0.000532725428,0.000613907663
-0.1,3.67606763e-05,0.000198750005,0.000328146915,0.000433338789,0.000523671026,0.000605224371
-0.15,2.72383122e-05,0.000188267653,0.000318169909,0.00042387943,0.00051465669,0.000596577163
-0.2,1.81737482e-05,0.00017784925,0.000308245492,0.000414465268,0.000505682235,0.000587965879
-0.25,1.03309614e-05,0.000167494775,0.000298373412,0.000405096086,0.000496747478,0.000579390361
-0.3,5.10636338e-06,0.000157204354,0.000288553424,0.000395771667,0.000487852236,0.000570850451
-0.35,2.76064224e-06,0.00014697833,0.000278785291,0.0003864918,0.000478996329,0.000562345993
-0.4,1.91056351e-06,0.000136817376,0.000269068791,0.000377256275,0.000470179576,0.000553876832
-0.45,1.5743505e-06,0.000126722671,0.000259403713,0.000368064883,0.000461401799,0.00054544281
-0.5,1.40974941e-06,0.0001166962,0.000249789866,0.00035891742,0.000452662821,0.000537043776
-0.55,1.31103973e-06,0.000106741265,0.00024022708,0.000349813686,0.000443962465,0.000528679575
-0.6,1.24233432e-06,9.68633911e-05,0.000230715214,0.000340753483,0.000435300558,0.000520350054
-0.65,1.18962624e-06,8.70719878e-05,0.000221254163,0.00033173662,0.000426676926,0.000512055063
-0.7,1.14665172e-06,7.73834672e-05,0.000211843867,0.000322762909,0.000418091398,0.00050379445
-0.75,1.11024536e-06,6.7827275e-05,0.000202484333,0.000313832168,0.000409543805,0.000495568065
-0.8,1.07862726e-06,5.84576165e-05,0.000193175645,0.000304944223,0.000401033979,0.000487375761
-0.85,1.05070118e-06,4.93755875e-05,0.000183918002,0.000296098909,0.000392561754,0.000479217388
-0.9,1.025739e-06,4.07660669e-05,0.000174711757,0.000287296069,0.00038412697,0.000471092801
-0.95,1.0032266e-06,3.29383269e-05,0.000165557476,0.000278535559,0.000375729463,0.000463001854
-1.0,9.82782954e-07,2.63063411e-05,0.00015645603,0.000269817247,0.000367369079,0.000454944402
-1.05,9.64114791e-07,2.12059104e-05,0.00014740873,0.000261141021,0.000359045662,0.000446920304
-1.1,9.46989559e-07,1.76356636e-05,0.000138417535,0.000252506788,0.000350759062,0.000438929417
-1.15,9.3121853e-07,1.52566139e-05,0.000129485375,0.000243914482,0.000342509132,0.000430971602
-1.2,9.16645695e-07,1.36522679e-05,0.000120616668,0.000235364069,0.000334295732,0.00042304672
-1.25,9.03140174e-07,1.25122047e-05,0.000111818157,0.000226855555,0.000326118724,0.000415154636
-1.3,8.90590833e-07,1.16502598e-05,0.000103100291,0.000218389002,0.000317977979,0.000407295213
-1.35,8.78902362e-07,1.09628538e-05,9.44795244e-05,0.000209964535,0.000309873373,0.000399468321
-1.4,8.67992332e-07,1.03921991e-05,8.59821447e-05,0.000201582371,0.000301804792,0.000391673828
-1.45,8.57788939e-07,9.90469345e-06,7.76505225e-05,0.000193242843,0.000293772129,0.000383911608
-1.5,8.48229244e-07,9.47965115e-06,6.95526869e-05,0.000184946438,0.000285775291,0.000376181535
-1.55,8.39257776e-07,9.10355647e-06,6.17948644e-05,0.000176693856,0.000277814198,0.000368483486
-1.6,8.30825406e-07,8.7670783e-06,5.4531711e-05,0.000168486087,0.000269888784,0.000360817345
-1.65,8.22888434e-07,8.46346087e-06,4.79588174e-05,0.000160324524,0.000261999004,0.000353182995
-1.7,8.15407832e-07,8.18761672e-06,4.22661324e-05,0.000152211127,0.000254144837,0.000345580325
-1.75,8.08348618e-07,7.93559081e-06,3.75571615e-05,0.000144148677,0.00024632629,0.00033800923
-1.8,8.01679336e-07,7.7042291e-06,3.37941367e-05,0.000136141137,0.000238543405,0.000330469608
-1.85,7.95371611e-07,7.49096438e-06,3.08253322e-05,0.000128194222,0.000230796271,0.000322961365
-1.9,7.89399771e-07,7.29367232e-06,2.84632636e-05,0.000120316261,0.000223085032,0.000315484412
-1.95,7.83740535e-07,7.11057119e-06,2.65442869e-05,0.00011251952,0.000215409902,0.000308038669
-2.0,7.78372729e-07,6.94014987e-06,2.49473833e-05,0.00010482223,0.000207771188,0.000300624063
-2.05,7.73277057e-07,6.78111459e-06,2.35891789e-05,9.72515753e-05,0.000200169316,0.000293240535
-2.1,7.68435891e-07,6.63234881e-06,2.24131039e-05,8.98478753e-05,0.000192604866,0.000285888036
-2.15,7.63833095e-07,6.49288215e-06,2.13801908e-05,8.26696433e-05,0.000185078623,0.000278566532
-2.2,7.59453868e-07,6.36186621e-06,2.04628114e-05,7.57978581e-05,0.000177591648,0.000271276005
-2.25,7.55284608e-07,6.2385551e-06,1.96407275e-05,6.93351792e-05,0.000170145372,0.000264016461
-2.3,7.51312796e-07,6.12228998e-06,1.88986469e-05,6.339369e-05,0.000162741732,0.000256787927
-2.35,7.47526883e-07,6.01248626e-06,1.82246949e-05,5.80682615e-05,0.000155383372,0.000249590463
-2.4,7.43916204e-07,5.9086232e-06,1.76094355e-05,5.34055116e-05,0.000148073912,0.000242424165
-2.45,7.40470891e-07,5.81023522e-06,1.7045226e-05,4.93892625e-05,0.000140818364,0.000235289174
-2.5,7.37181803e-07,5.71690465e-06,1.65257772e-05,4.59531997e-05,0.000133623707,0.000228185687
-2.55,7.34040455e-07,5.62825558e-06,1.60458457e-05,4.30085091e-05,0.000126499739,0.000221113971
-2.6,7.31038966e-07,5.54394877e-06,1.5601011e-05,4.04673859e-05,0.00011946027,0.000214074382
-2.65,7.28170004e-07,5.46367715e-06,1.51875112e-05,3.82546129e-05,0.000112524753,0.000207067386
-2.7,7.25426737e-07,5.38716209e-06,1.48021192e-05,3.63099586e-05,0.000105720358,0.000200093591
-2.75,7.22802793e-07,5.31415016e-06,1.44420468e-05,3.45863897e-05,9.9084229e-05,0.00019315379
-2.8,7.20292226e-07,5.24441029e-06,1.41048702e-05,3.30472639e-05,9.26651128e-05,0.000186249013
-2.85,7.17889473e-07,5.17773135e-06,1.378847e-05,3.16637851e-05,8.65227718e-05,0.000179380601
-2.9,7.1558933e-07,5.11392006e-06,1.34909846e-05,3.04130305e-05,8.07230654e-05,0.000172550308
-2.95,7.13386923e-07,5.05279907e-06,1.32107703e-05,2.9276502e-05,7.53277659e-05,0.000165760433
-3.0,7.11277682e-07,4.99420542e-06,1.29463705e-05,2.82390788e-05,7.03816832e-05,0.000159014008
-3.05,7.09257315e-07,4.93798903e-06,1.26964893e-05,2.72882564e-05,6.59031701e-05,0.000152315054
-3.1,7.07321792e-07,4.88401149e-06,1.24599692e-05,2.6413588e-05,6.18830049e-05,0.000145668925
-3.15,7.05467325e-07,4.83214495e-06,1.22357734e-05,2.56062662e-05,5.82910547e-05,0.00013908278
-3.2,7.03690348e-07,4.78227111e-06,1.20229701e-05,2.48588066e-05,5.50858372e-05,0.000132566206
-3.25,7.01987503e-07,4.73428032e-06,1.18207194e-05,2.41648036e-05,5.22225885e-05,0.000126132021
-3.3,7.00355625e-07,4.68807087e-06,1.16282622e-05,2.35187396e-05,4.96582715e-05,0.000119797236
-3.35,6.9879173e-07,4.64354822e-06,1.14449107e-05,2.29158344e-05,4.73539568e-05,0.000113584095
-3.4,6.97293001e-07,4.60062442e-06,1.12700401e-05,2.23519251e-05,4.52755606e-05,0.000107520933
-3.45,6.95856777e-07,4.5592175e-06,1.11030817e-05,2.18233684e-05,4.33937423e-05,0.000101642397
-3.5,6.94480545e-07,4.51925104e-06,1.09435163e-05,2.13269616e-05,4.16834441e-05,9.59883428e-05
-3.55,6.93161929e-07,4.48065366e-06,1.07908695e-05,2.08598778e-05,4.01233257e-05,9.06008223e-05
-3.6,6.9189868e-07,4.4433586e-06,1.06447064e-05,2.0419612e-05,3.86952091e-05,8.55191433e-05
-3.65,6.90688669e-07,4.40730341e-06,1.0504628e-05,2.00039364e-05,3.73835793e-05,8.07741511e-05
-3.7,6.89529881e-07,4.37242957e-06,1.03702672e-05,1.96108632e-05,3.61751553e-05,7.63837263e-05
-3.75,6.88420406e-07,4.33868219e-06,1.02412859e-05,1.92386129e-05,3.50585276e-05,7.23511685e-05
-3.8,6.87358434e-07,4.30600976e-06,1.01173722e-05,1.88855879e-05,3.40238574e-05,6.86666846e-05
-3.85,6.86342248e-07,4.27436387e-06,9.99823778e-06,1.85503495e-05,3.30626265e-05,6.53108402e-05
-3.9,6.85370221e-07,4.243699e-06,9.88361575e-06,1.82315989e-05,3.21674307e-05,6.22584666e-05
-3.95,6.84440806e-07,4.21397231e-06,9.77325876e-06,1.79281605e-05,3.1331809e-05,5.94819874e-05
-4.0,6.83552537e-07,4.18514345e-06,9.66693718e-06,1.76389678e-05,3.05501021e-05,5.6953776e-05
-4.05,6.8270402e-07,4.15717437e-06,9.56443757e-06,1.73630507e-05,2.9817334e-05,5.46475951e-05
-4.1,6.81893932e-07,4.13002921e-06,9.46556128e-06,1.70995251e-05,2.91291146e-05,5.25393394e-05
-4.15,6.81121014e-07,4.10367407e-06,9.37012321e-06,1.68475836e-05,2.84815567e-05,5.06073176e-05
-4.2,6.80384071e-07,4.07807697e-06,9.27795062e-06,1.66064873e-05,2.78712077e-05,4.88322599e-05
-4.25,6.79681967e-07,4.05320766e-06,9.18888221e-06,1.63755586e-05,2.72949907e-05,4.71971778e-05
-4.3,6.7901362e-07,4.02903753e-06,9.10276711e-06,1.61541751e-05,2.67501561e-05,4.56871561e-05
-4.35,6.78378002e-07,4.00553952e-06,9.01946411e-06,1.59417642e-05,2.62342389e-05,4.42891234e-05
-4.4,6.77774134e-07,3.982688e-06,8.9388409e-06,1.57377979e-05,2.57450239e-05,4.29916269e-05
-4.45,6.77201086e-07,3.96045868e-06,8.86077337e-06,1.5541789e-05,2.52805146e-05,4.17846233e-05
-4.5,6.7665797e-07,3.93882854e-06,8.78514499e-06,1.53532867e-05,2.48389074e-05,4.06592916e-05
-4.55,6.76143943e-07,3.91777577e-06,8.7118463e-06,1.51718737e-05,2.44185688e-05,3.96078687e-05
-4.6,6.75658201e-07,3.89727966e-06,8.64077431e-06,1.4997163e-05,2.40180161e-05,3.86235062e-05
-4.65,6.75199979e-07,3.87732055e-06,8.57183212e-06,1.48287954e-05,2.36359006e-05,3.77001479e-05
-4.7,6.74768546e-07,3.85787979e-06,8.50492845e-06,1.46664365e-05,2.32709926e-05,3.68324234e-05
-4.75,6.7436321e-07,3.83893964e-06,8.43997723e-06,1.45097753e-05,2.29221688e-05,3.60155586e-05
-4.8,6.73983307e-07,3.82048328e-06,8.37689729e-06,1.43585217e-05,2.25884011e-05,3.52452974e-05
-4.85,6.73628205e-07,3.80249467e-06,8.31561199e-06,1.4212405e-05,2.22687469e-05,3.4517836e-05
-4.9,6.73297305e-07,3.7849586e-06,8.25604897e-06,1.40711724e-05,2.19623401e-05,3.38297657e-05
-4.95,6.72990031e-07,3.76786059e-06,8.1981398e-06,1.39345874e-05,2.16683838e-05,3.31780245e-05
-5.0,6.72705836e-07,3.75118684e-06,8.14181978e-06,1.38024284e-05,2.13861437e-05,3.25598547e-05
-5.05,6.72444198e-07,3.73492424e-06,8.08702769e-06,1.36744878e-05,2.11149415e-05,3.1972767e-05
-5.1,6.7220462e-07,3.71906029e-06,8.03370557e-06,1.35505711e-05,2.08541504e-05,3.14145092e-05
-5.15,6.71986626e-07,3.70358308e-06,7.98179853e-06,1.34304953e-05,2.06031897e-05,3.08830388e-05
-5.2,6.71789763e-07,3.6884813e-06,7.93125453e-06,1.33140886e-05,2.03615214e-05,3.03764998e-05
-5.25,6.71613597e-07,3.67374411e-06,7.88202424e-06,1.32011893e-05,2.01286455e-05,2.9893202e-05
-5.3,6.71457714e-07,3.65936123e-06,7.83406088e-06,1.30916455e-05,1.99040972e-05,2.94316032e-05
-5.35,6.7132172e-07,3.64532282e-06,7.78732004e-06,1.29853137e-05,1.96874442e-05,2.89902934e-05
-5.4,6.71205238e-07,3.63161952e-06,7.74175959e-06,1.28820588e-05,1.94782831e-05,2.85679811e-05
-5.45,6.71107906e-07,3.61824237e-06,7.69733949e-06,1.27817534e-05,1.92762377e-05,2.81634816e-05
-5.5,6.71029379e-07,3.60518285e-06,7.65402173e-06,1.26842772e-05,1.90809565e-05,2.77757055e-05
-5.55,6.70969329e-07,3.59243279e-06,7.61177017e-06,1.25895165e-05,1.8892111e-05,2.74036503e-05
-5.6,6.7092744e-07,3.57998442e-06,7.57055047e-06,1.24973639e-05,1.87093934e-05,2.70463911e-05
-5.65,6.70903409e-07,3.56783029e-06,7.53032995e-06,1.24077179e-05,1.85325154e-05,2.67030741e-05
-5.7,6.70896949e-07,3.5559633e-06,7.49107755e-06,1.23204824e-05,1.83612066e-05,2.63729093e-05
-5.75,6.70907782e-07,3.54437665e-06,7.4527637e-06,1.22355663e-05,1.8195213e-05,2.60551651e-05
-5.8,6.70935645e-07,3.53306383e-06,7.41536026e-06,1.21528836e-05,1.80342963e-05,2.57491628e-05
-5.85,6.70980282e-07,3.52201863e-06,7.37884043e-06,1.20723526e-05,1.7878232e-05,2.5454272e-05
-5.9,6.71041451e-07,3.5112351e-06,7.3431787e-06,1.19938959e-05,1.77268091e-05,2.51699067e-05
-5.95,6.71118918e-07,3.50070753e-06,7.30835075e-06,1.19174401e-05,1.75798287e-05,2.4895521e-05
-6.0,6.7121246e-07,3.49043047e-06,7.27433343e-06,1.18429157e-05,1.74371033e-05,2.46306061e-05
-6.05,6.71321862e-07,3.48039869e-06,7.24110464e-06,1.17702565e-05,1.72984564e-05,2.4374687e-05
-6.1,6.71446917e-07,3.47060717e-06,7.20864333e-06,1.16993998e-05,1.71637211e-05,2.41273202e-05
-6.15,6.71587427e-07,3.4610511e-06,7.17692943e-06,1.1630286e-05,1.70327398e-05,2.38880906e-05
-6.2,6.71743201e-07,3.45172587e-06,7.14594376e-06,1.15628587e-05,1.69053637e-05,2.36566097e-05
-6.25,6.71914056e-07,3.44262705e-06,7.11566804e-06,1.14970639e-05,1.67814521e-05,2.34325134e-05
-6.3,6.72099817e-07,3.43375038e-06,7.08608481e-06,1.14328506e-05,1.6660872e-05,2.32154601e-05
-6.35,6.72300311e-07,3.42509178e-06,7.05717741e-06,1.13701702e-05,1.65434973e-05,2.30051292e-05
-6.4,6.72515377e-07,3.41664732e-06,7.02892989e-06,1.13089765e-05,1.64292089e-05,2.28012194e-05
-6.45,6.72744855e-07,3.40841321e-06,7.00132705e-06,1.12492254e-05,1.63178937e-05,2.26034472e-05
-6.5,6.72988595e-07,3.40038582e-06,6.97435432e-06,1.11908752e-05,1.62094448e-05,2.2411546e-05
-6.55,6.73246447e-07,3.39256164e-06,6.94799778e-06,1.1133886e-05,1.61037607e-05,2.22252646e-05
-6.6,6.73518271e-07,3.3849373e-06,6.92224412e-06,1.10782199e-05,1.60007451e-05,2.20443664e-05
