vds,vb1,vb2,vb3,vb4,vb5,vb6
0.0,1.99459958e-06,1.01242351e-05,1.69840664e-05,2.29157117e-05,2.82115837e-05,3.30795084e-05
-0.05,1.49202792e-06,9.5627528e-06,1.64606703e-05,2.24297444e-05,2.77581251e-05,3.26537834e-05
-0.1,9.99616328e-07,9.00147853e-06,1.59374141e-05,2.19438975e-05,2.7304775e-05,3.22281585e-05
-0.15,5.44890787e-07,8.44043207e-06,1.54142994e-05,2.14581713e-05,2.68515337e-05,3.18026337e-05
-0.2,2.11938551e-07,7.87964159e-06,1.48913282e-05,2.09725662e-05,2.63984011e-05,3.13772089e-05
-0.25,6.59527088e-08,7.3191479e-06,1.43685029e-05,2.04870826e-05,2.59453775e-05,3.09518842e-05
-0.3,2.34680024e-08,6.75901146e-06,1.38458265e-05,2.0001721e-05,2.5492463e-05,3.05266597e-05
-0.35,1.08901352e-08,6.19932408e-06,1.33233027e-05,1.95164822e-05,2.50396576e-05,3.01015353e-05
-0.4,6.37542901e-09,5.64022919e-06,1.28009359e-05,1.90313667e-05,2.45869617e-05,2.96765112e-05
-0.45,4.42610351e-09,5.08195785e-06,1.22787319e-05,1.85463754e-05,2.41343754e-05,2.92515874e-05
-0.5,3.45143832e-09,4.52489534e-06,1.17566979e-05,1.80615093e-05,2.36818989e-05,2.88267639e-05
-0.55,2.90491262e-09,3.96970878e-06,1.12348429e-05,1.75767695e-05,2.32295326e-05,2.84020409e-05
-0.6,2.56927427e-09,3.41760006e-06,1.07131786e-05,1.70921573e-05,2.27772766e-05,2.79774184e-05
-0.65,2.34744564e-09,2.87082158e-06,1.01917201e-05,1.66076743e-05,2.23251315e-05,2.75528965e-05
-0.7,2.19177559e-09,2.33373446e-06,9.67048697e-06,1.61233221e-05,2.18730975e-05,2.71284754e-05
-0.75,2.07701165e-09,1.81488524e-06,9.14950545e-06,1.56391031e-05,2.14211751e-05,2.67041552e-05
-0.8,1.98889214e-09,1.33041205e-06,8.62881049e-06,1.51550197e-05,2.09693649e-05,2.62799359e-05
-0.85,1.91891789e-09,9.06807733e-07,8.10844968e-06,1.4671075e-05,2.05176673e-05,2.58558179e-05
-0.9,1.86178502e-09,5.75012092e-07,7.58848867e-06,1.41872726e-05,2.00660831e-05,2.54318013e-05
-0.95,1.81404854e-09,3.49863116e-07,7.06901959e-06,1.37036169e-05,1.9614613e-05,2.50078862e-05
-1.0,1.7733909e-09,2.15949607e-07,6.55017402e-06,1.3220113e-05,1.91632578e-05,2.4584073e-05
-1.05,1.73820383e-09,1.42071707e-07,6.03214353e-06,1.27367675e-05,1.87120186e-05,2.41603618e-05
-1.1,1.70733996e-09,1.01789245e-07,5.5152128e-06,1.22535882e-05,1.82608965e-05,2.37367529e-05
-1.15,1.6799602e-09,7.91415982e-08,4.99981414e-06,1.17705847e-05,1.78098926e-05,2.33132468e-05
-1.2,1.65543711e-09,6.57512407e-08,4.48661891e-06,1.1287769e-05,1.73590086e-05,2.28898437e-05
-1.25,1.633292e-09,5.73785281e-08,3.97669287e-06,1.08051561e-05,1.69082461e-05,2.2466544e-05
-1.3,1.61315301e-09,5.18491811e-08,3.4717619e-06,1.03227648e-05,1.64576071e-05,2.20433482e-05
-1.35,1.59472648e-09,4.80090692e-08,2.9746612e-06,9.84061911e-06,1.60070938e-05,2.16202568e-05
-1.4,1.57777707e-09,4.52195386e-08,2.49006142e-06,9.35874988e-06,1.5556709e-05,2.11972704e-05
-1.45,1.56211361e-09,4.31118603e-08,2.02551118e-06,8.87719698e-06,1.51064557e-05,2.07743896e-05
-1.5,1.54757888e-09,4.14643279e-08,1.59251976e-06,8.39601273e-06,1.46563377e-05,2.0351615e-05
-1.55,1.53404222e-09,4.01385054e-08,1.20656863e-06,7.91526652e-06,1.42063591e-05,1.99289476e-05
-1.6,1.52139385e-09,3.90449002e-08,8.84007628e-07,7.43505149e-06,1.37565252e-05,1.95063881e-05
-1.65,1.50954076e-09,3.81237935e-08,6.35171003e-07,6.95549436e-06,1.33068418e-05,1.90839377e-05
-1.7,1.49840347e-09,3.73341632e-08,4.58244147e-07,6.47676992e-06,1.28573164e-05,1.86615974e-05
-1.75,1.48791351e-09,3.66470743e-08,3.40323864e-07,5.9991229e-06,1.24079574e-05,1.82393685e-05
-1.8,1.47801154e-09,3.60416177e-08,2.64518994e-07,5.52290112e-06,1.19587754e-05,1.78172526e-05
-1.85,1.46864575e-09,3.55023463e-08,2.16144143e-07,5.04860656e-06,1.15097832e-05,1.73952512e-05
-1.9,1.45977068e-09,3.50176149e-08,1.84827237e-07,4.57697459e-06,1.10609961e-05,1.69733664e-05
-1.95,1.45134621e-09,3.45784805e-08,1.6398606e-07,4.10909718e-06,1.06124333e-05,1.65516002e-05
-2.0,1.44333676e-09,3.41779581e-08,1.49635601e-07,3.64661281e-06,1.01641185e-05,1.61299552e-05
-2.05,1.43571064e-09,3.38105069e-08,1.39391709e-07,3.19199208e-06,9.7160813e-06,1.57084341e-05
-2.1,1.42843949e-09,3.34716694e-08,1.31816708e-07,2.74894144e-06,9.26835876e-06,1.52870405e-05
-2.15,1.42149785e-09,3.31578127e-08,1.26027643e-07,2.32290354e-06,8.82099816e-06,1.48657779e-05
-2.2,1.41486276e-09,3.28659408e-08,1.21469428e-07,1.92149639e-06,8.37405998e-06,1.4444651e-05
-2.25,1.40851347e-09,3.25935567e-08,1.17784135e-07,1.55446796e-06,7.92762242e-06,1.40236648e-05
-2.3,1.40243114e-09,3.2338558e-08,1.14734957e-07,1.2324808e-06,7.48178768e-06,1.36028253e-05
-2.35,1.39659865e-09,3.20991593e-08,1.12161237e-07,9.64322951e-07,7.03669069e-06,1.31821397e-05
-2.4,1.39100036e-09,3.18738313e-08,1.09951314e-07,7.53492914e-07,6.5925116e-06,1.27616164e-05
-2.45,1.38562199e-09,3.16612547e-08,1.08025791e-07,5.9651679e-07,6.14949364e-06,1.23412652e-05
-2.5,1.38045041e-09,3.14602831e-08,1.06326978e-07,4.84478757e-07,5.70796907e-06,1.19210978e-05
-2.55,1.37547359e-09,3.12699144e-08,1.04812111e-07,4.06475255e-07,5.26839691e-06,1.15011286e-05
-2.6,1.37068044e-09,3.10892672e-08,1.03448883e-07,3.52546839e-07,4.83141815e-06,1.10813743e-05
-2.65,1.36606071e-09,3.09175626e-08,1.02212456e-07,3.14976735e-07,4.39793634e-06,1.06618555e-05
-2.7,1.36160496e-09,3.07541084e-08,1.01083425e-07,2.88330317e-07,3.96923388e-06,1.02425974e-05
-2.75,1.35730442e-09,3.05982871e-08,1.000464e-07,2.68972177e-07,3.54713575e-06,9.82363049e-06
-2.8,1.35315095e-09,3.04495453e-08,9.90890009e-08,2.54525674e-07,3.1342282e-06,9.40499265e-06
-2.85,1.34913701e-09,3.03073851e-08,9.82011461e-08,2.43444693e-07,2.73412236e-06,8.98673089e-06
-2.9,1.34525557e-09,3.01713571e-08,9.73745248e-08,2.34717178e-07,2.35170594e-06,8.56890406e-06
-2.95,1.34150007e-09,3.00410542e-08,9.66022135e-08,2.27672156e-07,1.99323671e-06,8.15158642e-06
-3.0,1.33786442e-09,2.99161066e-08,9.58783864e-08,2.218574e-07,1.66601866e-06,7.73487247e-06
-3.05,1.33434288e-09,2.97961773e-08,9.51980968e-08,2.16962471e-07,1.37737997e-06,7.31888344e-06
-3.1,1.33093013e-09,2.96809583e-08,9.45571091e-08,2.1277014e-07,1.13294897e-06,6.90377629e-06
-3.15,1.32762115e-09,2.95701677e-08,9.39517692e-08,2.09125452e-07,9.34844164e-07,6.48975606e-06
-3.2,1.32441125e-09,2.94635463e-08,9.33789023e-08,2.05915761e-07,7.80839361e-07,6.07709304e-06
-3.25,1.32129603e-09,2.9360856e-08,9.28357322e-08,2.03057669e-07,6.65111545e-07,5.66614674e-06
-3.3,1.31827134e-09,2.9261877e-08,9.2319817e-08,2.00488336e-07,5.80071497e-07,5.2573994e-06
-3.35,1.3153333e-09,2.91664064e-08,9.18289973e-08,1.98159621e-07,5.18183647e-07,4.85150282e-06
-3.4,1.31247822e-09,2.90742561e-08,9.13613539e-08,1.96034055e-07,4.73061871e-07,4.44934318e-06
-3.45,1.30970267e-09,2.89852519e-08,9.09151731e-08,1.94082042e-07,4.39804019e-07,4.05212942e-06
-3.5,1.30700337e-09,2.88992321e-08,9.04889185e-08,1.92279878e-07,4.14867435e-07,3.66150952e-06
-3.55,1.30437726e-09,2.8816046e-08,9.00812069e-08,1.90608332e-07,3.95777309e-07,3.27971475e-06
-3.6,1.30182143e-09,2.87355533e-08,8.96907889e-08,1.89051615e-07,3.80832009e-07,2.90971837e-06
-3.65,1.29933312e-09,2.86576233e-08,8.93165317e-08,1.87596619e-07,3.6886589e-07,2.55536862e-06
-3.7,1.29690975e-09,2.85821336e-08,8.89574055e-08,1.86232348e-07,3.59077073e-07,2.22141151e-06
-3.75,1.29454886e-09,2.850897e-08,8.8612471e-08,1.84949492e-07,3.50908736e-07,1.91327072e-06
-3.8,1.2922481e-09,2.84380252e-08,8.82808693e-08,1.837401e-07,3.4396934e-07,1.63644847e-06
-3.85,1.29000528e-09,2.83691989e-08,8.79618131e-08,1.82597328e-07,3.37979565e-07,1.39552992e-06
-3.9,1.2878183e-09,2.83023968e-08,8.76545787e-08,1.81515238e-07,3.32737037e-07,1.19304251e-06
-3.95,1.28568517e-09,2.82375303e-08,8.73584999e-08,1.80488647e-07,3.28092788e-07,1.02867769e-06
-4.0,1.283604e-09,2.81745163e-08,8.70729616e-08,1.79513002e-07,3.23935403e-07,8.99323544e-07
-4.05,1.281573e-09,2.81132761e-08,8.67973951e-08,1.7858428e-07,3.20180238e-07,7.99910421e-07
-4.1,1.27959047e-09,2.8053736e-08,8.65312735e-08,1.77698908e-07,3.16762003e-07,7.24610664e-07
-4.15,1.27765477e-09,2.79958262e-08,8.62741079e-08,1.76853699e-07,3.13629593e-07,6.67859573e-07
-4.2,1.27576438e-09,2.79394809e-08,8.60254436e-08,1.76045794e-07,3.10742446e-07,6.24935714e-07
-4.25,1.27391782e-09,2.78846381e-08,8.57848576e-08,1.75272623e-07,3.0806794e-07,5.92132576e-07
-4.3,1.27211369e-09,2.78312389e-08,8.55519552e-08,1.74531862e-07,3.05579511e-07,5.66681771e-07
-4.35,1.27035066e-09,2.77792279e-08,8.5326368e-08,1.73821406e-07,3.03255272e-07,5.4657643e-07
-4.4,1.26862745e-09,2.77285523e-08,8.51077515e-08,1.73139338e-07,3.01076995e-07,5.3038428e-07
-4.45,1.26694286e-09,2.76791624e-08,8.48957832e-08,1.72483914e-07,2.99029345e-07,5.17088801e-07
-4.5,1.26529572e-09,2.76310109e-08,8.46901608e-08,1.71853533e-07,2.97099303e-07,5.05967512e-07
-4.55,1.26368494e-09,2.7584053e-08,8.44906009e-08,1.71246732e-07,2.95275713e-07,4.96503714e-07
-4.6,1.26210946e-09,2.75382463e-08,8.42968369e-08,1.70662163e-07,2.93548949e-07,4.88324371e-07
-4.65,1.26056826e-09,2.74935502e-08,8.41086184e-08,1.70098585e-07,2.91910637e-07,4.81157038e-07
-4.7,1.25906039e-09,2.74499264e-08,8.39257096e-08,1.69554852e-07,2.90353447e-07,4.74800162e-07
-4.75,1.25758492e-09,2.74073386e-08,8.37478885e-08,1.69029904e-07,2.88870922e-07,4.69102589e-07
-4.8,1.25614098e-09,2.7365752e-08,8.35749456e-08,1.68522758e-07,2.87457342e-07,4.63949369e-07
-4.85,1.25472771e-09,2.73251335e-08,8.34066833e-08,1.68032501e-07,2.86107615e-07,4.59251854e-07
-4.9,1.25334431e-09,2.72854519e-08,8.3242915e-08,1.67558284e-07,2.84817184e-07,4.54940729e-07
-4.95,1.25199001e-09,2.7246677e-08,8.30834641e-08,1.67099317e-07,2.83581956e-07,4.50961064e-07
-5.0,1.25066407e-09,2.72087806e-08,8.29281638e-08,1.66654863e-07,2.82398235e-07,4.4726876e-07
-5.05,1.24936577e-09,2.71717352e-08,8.27768563e-08,1.66224231e-07,2.81262676e-07,4.43827973e-07
-5.1,1.24809442e-09,2.71355151e-08,8.26293917e-08,1.65806778e-07,2.80172241e-07,4.40609225e-07
-5.15,1.24684939e-09,2.71000954e-08,8.24856284e-08,1.65401899e-07,2.79124159e-07,4.37588004e-07
-5.2,1.24563003e-09,2.70654526e-08,8.23454318e-08,1.65009028e-07,2.78115895e-07,4.3474372e-07
-5.25,1.24443574e-09,2.70315641e-08,8.22086744e-08,1.64627633e-07,2.77145129e-07,4.32058905e-07
-5.3,1.24326595e-09,2.69984084e-08,8.20752349e-08,1.64257215e-07,2.76209725e-07,4.2951861e-07
-5.35,1.24212009e-09,2.69659647e-08,8.19449982e-08,1.63897304e-07,2.75307717e-07,4.27109936e-07
-5.4,1.24099763e-09,2.69342135e-08,8.18178549e-08,1.63547457e-07,2.74437291e-07,4.24821668e-07
-5.45,1.23989805e-09,2.69031359e-08,8.1693701e-08,1.63207257e-07,2.73596766e-07,4.22643986e-07
-5.5,1.23882085e-09,2.68727139e-08,8.15724375e-08,1.6287631e-07,2.72784585e-07,4.20568239e-07
-5.55,1.23776556e-09,2.68429301e-08,8.14539701e-08,1.62554244e-07,2.71999303e-07,4.18586758e-07
-5.6,1.23673172e-09,2.68137681e-08,8.1338209e-08,1.62240708e-07,2.71239575e-07,4.1669271e-07
-5.65,1.23571888e-09,2.6785212e-08,8.12250687e-08,1.61935371e-07,2.70504147e-07,4.14879977e-07
-5.7,1.2347266e-09,2.67572466e-08,8.11144678e-08,1.61637917e-07,2.6979185e-07,4.13143055e-07
-5.75,1.23375448e-09,2.67298573e-08,8.10063284e-08,1.61348049e-07,2.69101592e-07,4.11476973e-07
-5.8,1.23280212e-09,2.67030302e-08,8.09005763e-08,1.61065486e-07,2.6843235e-07,4.09877224e-07
-5.85,1.23186913e-09,2.66767518e-08,8.07971409e-08,1.6078996e-07,2.67783165e-07,4.08339706e-07
-5.9,1.23095514e-09,2.66510092e-08,8.06959544e-08,1.60521216e-07,2.67153139e-07,4.06860678e-07
-5.95,1.23005979e-09,2.66257901e-08,8.05969523e-08,1.60259015e-07,2.66541429e-07,4.05436712e-07
-6.0,1.22918272e-09,2.66010825e-08,8.05000728e-08,1.60003127e-07,2.6594724e-07,4.04064663e-07
-6.05,1.2283236e-09,2.65768751e-08,8.04052571e-08,1.59753336e-07,2.65369826e-07,4.02741635e-07
-6.1,1.2274821e-09,2.65531567e-08,8.03124486e-08,1.59509433e-07,2.64808484e-07,4.01464956e-07
-6.15,1.22665791e-09,2.65299168e-08,8.02215932e-08,1.59271224e-07,2.64262549e-07,4.00232159e-07
-6.2,1.22585071e-09,2.65071452e-08,8.01326395e-08,1.5903852e-07,2.63731398e-07,3.99040954e-07
-6.25,1.22506021e-09,2.6484832e-08,8.00455377e-08,1.58811143e-07,2.63214437e-07,3.97889218e-07
-6.3,1.22428613e-09,2.64629677e-08,7.99602406e-08,1.58588923e-07,2.62711109e-07,3.96774976e-07
-6.35,1.22352817e-09,2.64415433e-08,7.98767026e-08,1.58371699e-07,2.62220885e-07,3.95696388e-07
-6.4,1.22278606e-09,2.64205499e-08,7.97948802e-08,1.58159317e-07,2.61743264e-07,3.94651738e-07
-6.45,1.22205955e-09,2.6399979e-08,7.97147315e-08,1.57951629e-07,2.61277773e-07,3.93639423e-07
-6.5,1.22134837e-09,2.63798223e-08,7.96362165e-08,1.57748494e-07,2.60823963e-07,3.92657942e-07
-6.55,1.22065228e-09,2.6360072e-08,7.95592966e-08,1.57549779e-07,2.60381406e-07,3.91705889e-07
-6.6,1.21997101e-09,2.63407202e-08,7.94839349e-08,1.57355356e-07,2.599497e-07,3.90781946e-07
