vds,vb1,vb2,vb3,vb4,vb5,vb6
0.0,4.98913594e-06,2.13736792e-05,3.52570205e-05,4.67681976e-05,5.71820295e-05,6.67847667e-05
-0.05,3.9914585e-06,2.0286024e-05,3.42238113e-05,4.5792046e-05,5.62545404e-05,6.58981895e-05
-0.1,3.00553851e-06,1.92013822e-05,3.31930995e-05,4.48180644e-05,5.5328985e-05,6.50133666e-05
-0.15,2.04747957e-06,1.81197712e-05,3.21648814e-05,4.38462481e-05,5.44053591e-05,6.41302941e-05
-0.2,1.17303183e-06,1.70412183e-05,3.11391536e-05,4.28765927e-05,5.34836585e-05,6.32489682e-05
-0.25,5.26179605e-07,1.59657651e-05,3.01159135e-05,4.19090938e-05,5.2563879e-05,6.23693851e-05
-0.3,2.12977754e-07,1.48934746e-05,2.90951592e-05,4.09437471e-05,5.16460164e-05,6.14915409e-05
-0.35,1.05923363e-07,1.3824443e-05,2.80768897e-05,3.99805486e-05,5.07300666e-05,6.06154318e-05
-0.4,6.94282763e-08,1.27588174e-05,2.70611055e-05,3.90194944e-05,4.98160257e-05,5.97410542e-05
-0.45,5.44112563e-08,1.16968278e-05,2.60478086e-05,3.80605807e-05,4.89038896e-05,5.88684043e-05
-0.5,4.67860879e-08,1.06388414e-05,2.50370027e-05,3.71038042e-05,4.79936545e-05,5.79974785e-05
-0.55,4.21674645e-08,9.58546002e-06,2.40286946e-05,3.61491617e-05,4.70853166e-05,5.7128273e-05
-0.6,3.89761282e-08,8.5377024e-06,2.3022894e-05,3.51966504e-05,4.61788721e-05,5.62607843e-05
-0.65,3.65586381e-08,7.49735292e-06,2.20196152e-05,3.42462678e-05,4.52743173e-05,5.53950088e-05
-0.7,3.46100307e-08,6.46765068e-06,2.10188783e-05,3.32980122e-05,4.43716488e-05,5.45309429e-05
-0.75,3.29724899e-08,5.45466596e-06,2.00207113e-05,3.2351882e-05,4.34708631e-05,5.36685832e-05
-0.8,3.15567419e-08,4.46998335e-06,1.90251527e-05,3.14078767e-05,4.2571957e-05,5.28079263e-05
-0.85,3.03082516e-08,3.53536141e-06,1.8032256e-05,3.04659963e-05,4.16749272e-05,5.19489687e-05
-0.9,2.9191433e-08,2.68819966e-06,1.70420952e-05,2.9526242e-05,4.0779771e-05,5.10917071e-05
-0.95,2.81817262e-08,1.97958322e-06,1.60547735e-05,2.85886162e-05,3.98864854e-05,5.02361383e-05
-1.0,2.72613657e-08,1.45083099e-06,1.50704368e-05,2.76531227e-05,3.89950679e-05,4.93822589e-05
-1.05,2.64169898e-08,1.10009708e-06,1.40892935e-05,2.67197672e-05,3.81055163e-05,4.8530066e-05
-1.1,2.5638222e-08,8.83904688e-07,1.31116457e-05,2.57885577e-05,3.72178285e-05,4.76795564e-05
-1.15,2.49167893e-08,7.51360634e-07,1.21379396e-05,2.48595054e-05,3.63320029e-05,4.68307272e-05
-1.2,2.42459529e-08,6.66120486e-07,1.11688463e-05,2.39326248e-05,3.54480383e-05,4.59835755e-05
-1.25,2.36201258e-08,6.0727945e-07,1.02053957e-05,2.30079355e-05,3.45659338e-05,4.51380986e-05
-1.3,2.30346078e-08,5.63706368e-07,9.24920166e-06,2.20854631e-05,3.36856891e-05,4.42942938e-05
-1.35,2.24853966e-08,5.29494591e-07,8.30284127e-06,2.11652413e-05,3.28073048e-05,4.34521586e-05
-1.4,2.19690491e-08,5.01405502e-07,7.37049241e-06,2.02473145e-05,3.19307819e-05,4.26116907e-05
-1.45,2.14825774e-08,4.77574785e-07,6.45896585e-06,1.93317412e-05,3.10561226e-05,4.17728879e-05
-1.5,2.10233692e-08,4.56869616e-07,5.57922758e-06,1.84185988e-05,3.01833299e-05,4.09357482e-05
-1.55,2.05891259e-08,4.38563577e-07,4.74815847e-06,1.75079913e-05,2.93124085e-05,4.01002699e-05
-1.6,2.01778133e-08,4.22166723e-07,3.98925871e-06,1.66000583e-05,2.84433643e-05,3.92664514e-05
-1.65,1.97876222e-08,4.07333215e-07,3.32945356e-06,1.56949904e-05,2.75762054e-05,3.84342915e-05
-1.7,1.94169363e-08,3.9380902e-07,2.78980789e-06,1.47930502e-05,2.67109423e-05,3.76037894e-05
-1.75,1.90643057e-08,3.81401068e-07,2.37448576e-06,1.38946043e-05,2.58475884e-05,3.67749444e-05
-1.8,1.87284251e-08,3.6995835e-07,2.06829928e-06,1.30001716e-05,2.49861608e-05,3.59477566e-05
-1.85,1.84081155e-08,3.59359884e-07,1.84558509e-06,1.21104977e-05,2.41266812e-05,3.51222262e-05
-1.9,1.81023086e-08,3.49506796e-07,1.68117223e-06,1.12266688e-05,2.32691773e-05,3.42983545e-05
-1.95,1.78100336e-08,3.40316924e-07,1.55582957e-06,1.03502893e-05,2.24136842e-05,3.34761429e-05
-2.0,1.75304063e-08,3.31721041e-07,1.45661545e-06,9.48375511e-06,2.15602465e-05,3.2655594e-05
-2.05,1.72626191e-08,3.23660138e-07,1.37528338e-06,8.63066664e-06,2.07089213e-05,3.18367113e-05
-2.1,1.70059327e-08,3.16083415e-07,1.30663412e-06,7.79642045e-06,1.98597822e-05,3.10194993e-05
-2.15,1.67596689e-08,3.08946768e-07,1.2473401e-06,6.98896605e-06,1.90129241e-05,3.0203964e-05
-2.2,1.65232045e-08,3.02211631e-07,1.19520945e-06,6.21953848e-06,1.81684709e-05,2.93901128e-05
-2.25,1.62959653e-08,2.95844061e-07,1.14874709e-06,5.50280434e-06,1.73265853e-05,2.85779553e-05
-2.3,1.60774218e-08,2.89814021e-07,1.10689558e-06,4.85542042e-06,1.64874832e-05,2.77675031e-05
-2.35,1.58670845e-08,2.84094798e-07,1.06888052e-06,4.29220893e-06,1.56514539e-05,2.6958771e-05
-2.4,1.56645003e-08,2.78662526e-07,1.03411667e-06,3.82093274e-06,1.48188894e-05,2.61517771e-05
-2.45,1.5469249e-08,2.73495804e-07,1.00214923e-06,3.43900642e-06,1.39903261e-05,2.53465438e-05
-2.5,1.52809405e-08,2.68575367e-07,9.72616221e-07,3.13488607e-06,1.31665069e-05,2.45430988e-05
-2.55,1.50992122e-08,2.63883816e-07,9.45223654e-07,2.89289351e-06,1.23484715e-05,2.37414765e-05
-2.6,1.49237263e-08,2.59405389e-07,9.19728614e-07,2.69784748e-06,1.15376874e-05,2.29417197e-05
-2.65,1.47541679e-08,2.55125769e-07,8.9592748e-07,2.53742785e-06,1.07362396e-05,2.21438817e-05
-2.7,1.45902431e-08,2.51031915e-07,8.73647474e-07,2.40255094e-06,9.94709534e-06,2.13480293e-05
-2.75,1.44316771e-08,2.47111921e-07,8.52740464e-07,2.28681643e-06,9.17445073e-06,2.0554247e-05
-2.8,1.4278213e-08,2.4335489e-07,8.33078323e-07,2.18577171e-06,8.42413277e-06,1.97626415e-05
-2.85,1.41296099e-08,2.3975083e-07,8.14549376e-07,2.09629584e-06,7.7039408e-06,1.89733494e-05
-2.9,1.39856421e-08,2.36290557e-07,7.9705564e-07,2.01615914e-06,7.02366238e-06,1.81865463e-05
-2.95,1.38460977e-08,2.32965617e-07,7.80510647e-07,1.94372899e-06,6.39434478e-06,1.74024603e-05
-3.0,1.37107775e-08,2.29768212e-07,7.6483769e-07,1.87777828e-06,5.82647897e-06,1.66213893e-05
-3.05,1.35794944e-08,2.26691135e-07,7.49968411e-07,1.81736096e-06,5.32735248e-06,1.58437269e-05
-3.1,1.34520721e-08,2.23727717e-07,7.35841638e-07,1.76173059e-06,4.89876836e-06,1.5069997e-05
-3.15,1.33283445e-08,2.20871777e-07,7.22402425e-07,1.71028595e-06,4.53658198e-06,1.4300903e-05
-3.2,1.32081552e-08,2.18117577e-07,7.09601247e-07,1.66253416e-06,4.23236221e-06,1.35373965e-05
-3.25,1.30913564e-08,2.15459781e-07,6.97393322e-07,1.61806491e-06,3.97600559e-06,1.27807729e-05
-3.3,1.29778087e-08,2.12893424e-07,6.85738045e-07,1.5765322e-06,3.7578768e-06,1.20328006e-05
-3.35,1.28673803e-08,2.10413877e-07,6.74598493e-07,1.53764101e-06,3.56988811e-06,1.12958914e-05
-3.4,1.27599464e-08,2.0801682e-07,6.63941008e-07,1.50113737e-06,3.40571694e-06,1.05733087e-05
-3.45,1.26553891e-08,2.05698215e-07,6.53734838e-07,1.46680091e-06,3.26058737e-06,9.8693896e-06
-3.5,1.25535968e-08,2.03454287e-07,6.43951822e-07,1.434439e-06,3.130928e-06,9.18971312e-06
-3.55,1.24544636e-08,2.01281499e-07,6.34566118e-07,1.40388225e-06,3.01405442e-06,8.54108115e-06
-3.6,1.23578892e-08,1.99176536e-07,6.25553965e-07,1.3749809e-06,2.90792102e-06,7.93111738e-06
-3.65,1.22637783e-08,1.97136287e-07,6.16893476e-07,1.34760187e-06,2.81094094e-06,7.36732473e-06
-3.7,1.21720407e-08,1.95157829e-07,6.08564453e-07,1.32162639e-06,2.72185972e-06,6.85567289e-06
-3.75,1.20825906e-08,1.93238414e-07,6.00548228e-07,1.29694807e-06,2.63966748e-06,6.39918441e-06
-3.8,1.19953464e-08,1.91375457e-07,5.92827514e-07,1.27347126e-06,2.56353755e-06,5.99721944e-06
-3.85,1.19102307e-08,1.89566521e-07,5.85386284e-07,1.25110964e-06,2.49278323e-06,5.64586262e-06
-3.9,1.18271697e-08,1.8780931e-07,5.78209655e-07,1.22978513e-06,2.42682674e-06,5.33915016e-06
-3.95,1.17460933e-08,1.8610166e-07,5.71283786e-07,1.20942688e-06,2.36517649e-06,5.07046136e-06
-4.0,1.16669348e-08,1.84441523e-07,5.64595791e-07,1.18997042e-06,2.30741026e-06,4.83353763e-06
-4.05,1.15896305e-08,1.8282697e-07,5.58133655e-07,1.17135698e-06,2.25316241e-06,4.62298544e-06
-4.1,1.151412e-08,1.81256171e-07,5.5188616e-07,1.15353283e-06,2.20211399e-06,4.43438963e-06
-4.15,1.14403454e-08,1.797274e-07,5.45842824e-07,1.13644873e-06,2.15398507e-06,4.26422286e-06
-4.2,1.13682518e-08,1.7823902e-07,5.39993839e-07,1.12005951e-06,2.1085286e-06,4.10968585e-06
-4.25,1.12977865e-08,1.7678948e-07,5.34330018e-07,1.10432363e-06,2.06552544e-06,3.96854823e-06
-4.3,1.12288994e-08,1.75377312e-07,5.28842748e-07,1.08920279e-06,2.0247804e-06,3.83901527e-06
-4.35,1.11615428e-08,1.74001122e-07,5.23523943e-07,1.07466167e-06,1.9861189e-06,3.71962482e-06
-4.4,1.10956709e-08,1.72659588e-07,5.18366007e-07,1.0606676e-06,1.94938422e-06,3.60917019e-06
-4.45,1.103124e-08,1.71351454e-07,5.13361798e-07,1.04719034e-06,1.91443523e-06,3.50664324e-06
-4.5,1.09682084e-08,1.70075528e-07,5.08504594e-07,1.03420183e-06,1.88114443e-06,3.4111922e-06
-4.55,1.09065362e-08,1.68830675e-07,5.03788062e-07,1.02167604e-06,1.84939632e-06,3.32209028e-06
-4.6,1.08461852e-08,1.6761582e-07,4.99206232e-07,1.00958873e-06,1.81908597e-06,3.23871189e-06
-4.65,1.0787119e-08,1.66429936e-07,4.94753472e-07,9.9791736e-07,1.79011785e-06,3.16051446e-06
-4.7,1.07293025e-08,1.65272047e-07,4.90424464e-07,9.86640888e-07,1.76240476e-06,3.08702426e-06
-4.75,1.06727023e-08,1.64141226e-07,4.86214183e-07,9.75739685e-07,1.73586695e-06,3.01782526e-06
-4.8,1.06172864e-08,1.63036586e-07,4.82117878e-07,9.65195402e-07,1.7104313e-06,2.95255018e-06
-4.85,1.0563024e-08,1.61957286e-07,4.78131053e-07,9.54990872e-07,1.68603068e-06,2.8908733e-06
-4.9,1.05098856e-08,1.60902521e-07,4.74249453e-07,9.45110013e-07,1.6626033e-06,2.83250451e-06
-4.95,1.04578432e-08,1.59871525e-07,4.70469047e-07,9.35537749e-07,1.64009224e-06,2.77718446e-06
-5.0,1.04068694e-08,1.58863567e-07,4.66786013e-07,9.26259928e-07,1.61844491e-06,2.72468048e-06
-5.05,1.03569384e-08,1.57877949e-07,4.63196727e-07,9.17263256e-07,1.59761269e-06,2.67478316e-06
-5.1,1.03080252e-08,1.56914005e-07,4.59697751e-07,9.0853523e-07,1.57755057e-06,2.62730349e-06
-5.15,1.02601059e-08,1.55971098e-07,4.56285819e-07,9.00064088e-07,1.55821676e-06,2.58207039e-06
-5.2,1.02131573e-08,1.55048622e-07,4.5295783e-07,8.91838744e-07,1.53957248e-06,2.53892858e-06
-5.25,1.01671574e-08,1.54145994e-07,4.49710838e-07,8.83848754e-07,1.52158164e-06,2.49773683e-06
-5.3,1.01220849e-08,1.5326266e-07,4.4654204e-07,8.7608426e-07,1.50421062e-06,2.45836636e-06
-5.35,1.00779193e-08,1.52398088e-07,4.43448773e-07,8.68535957e-07,1.48742809e-06,2.42069949e-06
-5.4,1.00346409e-08,1.51551771e-07,4.404285e-07,8.61195052e-07,1.47120479e-06,2.38462848e-06
-5.45,9.99223065e-09,1.50723222e-07,4.37478806e-07,8.54053234e-07,1.45551337e-06,2.3500545e-06
-5.5,9.95067037e-09,1.49911974e-07,4.34597394e-07,8.47102638e-07,1.44032824e-06,2.31688668e-06
-5.55,9.90994242e-09,1.49117583e-07,4.31782073e-07,8.40335819e-07,1.42562542e-06,2.28504138e-06
-5.6,9.8700298e-09,1.4833962e-07,4.29030756e-07,8.33745727e-07,1.41138243e-06,2.25444146e-06
-5.65,9.83091615e-09,1.47577675e-07,4.26341453e-07,8.27325677e-07,1.39757819e-06,2.22501565e-06
-5.7,9.79258566e-09,1.46831357e-07,4.23712265e-07,8.21069332e-07,1.38419285e-06,2.19669801e-06
-5.75,9.75502308e-09,1.46100289e-07,4.21141381e-07,8.14970679e-07,1.37120779e-06,2.16942744e-06
-5.8,9.71821366e-09,1.45384107e-07,4.18627073e-07,8.09024009e-07,1.35860546e-06,2.14314725e-06
-5.85,9.68214316e-09,1.44682467e-07,4.16167691e-07,8.03223902e-07,1.34636933e-06,2.11780476e-06
-5.9,9.64679782e-09,1.43995033e-07,4.13761659e-07,7.97565207e-07,1.33448383e-06,2.09335097e-06
-5.95,9.61216433e-09,1.43321487e-07,4.1140747e-07,7.92043028e-07,1.32293425e-06,2.0697402e-06
-6.0,9.57822978e-09,1.42661519e-07,4.09103684e-07,7.86652709e-07,1.31170673e-06,2.04692987e-06
-6.05,9.54498171e-09,1.42014834e-07,4.06848927e-07,7.81389819e-07,1.30078815e-06,2.02488022e-06
-6.1,9.51240803e-09,1.41381147e-07,4.04641881e-07,7.76250142e-07,1.29016612e-06,2.00355406e-06
-6.15,9.48049702e-09,1.40760184e-07,4.02481287e-07,7.71229665e-07,1.27982891e-06,1.98291659e-06
-6.2,9.44923733e-09,1.40151682e-07,4.0036594e-07,7.66324564e-07,1.26976542e-06,1.96293522e-06
-6.25,9.41861794e-09,1.39555385e-07,3.98294686e-07,7.61531194e-07,1.25996513e-06,1.94357938e-06
-6.3,9.38862815e-09,1.38971048e-07,3.9626642e-07,7.56846085e-07,1.25041809e-06,1.92482035e-06
-6.35,9.35925758e-09,1.38398437e-07,3.94280081e-07,7.52265924e-07,1.24111485e-06,1.90663119e-06
-6.4,9.33049613e-09,1.37837321e-07,3.92334657e-07,7.47787554e-07,1.23204644e-06,1.88898653e-06
-6.45,9.302334e-09,1.37287483e-07,3.90429172e-07,7.43407961e-07,1.22320435e-06,1.87186249e-06
-6.5,9.27476165e-09,1.36748708e-07,3.88562693e-07,7.39124269e-07,1.21458051e-06,1.8552366e-06
-6.55,9.24776979e-09,1.36220792e-07,3.86734324e-07,7.34933731e-07,1.20616724e-06,1.83908765e-06
-6.6,9.22134939e-09,1.35703537e-07,3.84943205e-07,7.30833726e-07,1.19795724e-06,1.82339565e-06
