vds,vb1,vb2,vb3,vb4,vb5,vb6
0.0,3.55214582e-05,0.000290085789,0.000490737001,0.000649298528,0.000780137334,0.0008872238
-0.05,2.17262413e-05,0.000272584022,0.000474271701,0.00063395235,0.000765810348,0.000873821668
-0.1,9.57556691e-06,0.000255190363,0.000457894769,0.000618680599,0.000751547156,0.000860474862
-0.15,2.68139284e-06,0.000237904832,0.000441605727,0.000603482878,0.000737347438,0.000847183121
-0.2,8.33456408e-07,0.000220727795,0.00042540411,0.000588358795,0.000723210877,0.000833946187
-0.25,4.20422432e-07,0.000203660166,0.000409289474,0.000573307961,0.000709137157,0.000820763804
-0.3,2.92506235e-07,0.000186703736,0.000393261397,0.000558329992,0.000695125968,0.000807635714
-0.35,2.36748473e-07,0.000169861756,0.000377319482,0.000543424512,0.000681176997,0.000794561665
-0.4,2.05521982e-07,0.000153139994,0.000361463371,0.000528591146,0.000667289937,0.000781541404
-0.45,1.84873064e-07,0.000136548726,0.000345692749,0.00051382953,0.000653464484,0.00076857468
-0.5,1.69699239e-07,0.000120106648,0.000330007359,0.000499139302,0.000639700333,0.000755661243
-0.55,1.57778563e-07,0.000103848837,0.000314407023,0.000484520112,0.000625997186,0.000742800847
-0.6,1.47998833e-07,8.78434736e-05,0.000298891664,0.000469971617,0.000612354745,0.000729993245
-0.65,1.39737426e-07,7.22270705e-05,0.000283461348,0.000455493486,0.000598772717,0.000717238193
-0.7,1.32613095e-07,5.72743835e-05,0.000268116335,0.000441085398,0.000585250811,0.000704535449
-0.75,1.2637514e-07,4.35075641e-05,0.000252857162,0.000426747048,0.00057178874,0.000691884771
-0.8,1.20849141e-07,3.17470504e-05,0.000237684759,0.00041247815,0.000558386221,0.000679285921
-0.85,1.15908223e-07,2.28080934e-05,0.000222600636,0.000398278436,0.000545042975,0.000666738663
-0.9,1.1145679e-07,1.68344539e-05,0.000207607171,0.000384147665,0.000531758727,0.00065424276
-0.95,1.07420754e-07,1.31524106e-05,0.000192708063,0.000370085628,0.00051853321,0.00064179798
-1.0,1.03741387e-07,1.0887268e-05,0.000177909082,0.000356092157,0.000505366158,0.000629404093
-1.05,1.0037126e-07,9.41589532e-06,0.000163219311,0.000342167133,0.000492257315,0.00061706087
-1.1,9.72714788e-08,8.38905341e-06,0.000148653265,0.000328310501,0.000479206431,0.000604768085
-1.15,9.44097362e-08,7.62430508e-06,0.000134234562,0.000314522291,0.000466213265,0.000592525515
-1.2,9.17588979e-08,7.02498463e-06,0.000120002339,0.000300802643,0.000453277584,0.00058033294
-1.25,8.92959584e-08,6.53721131e-06,0.000106022379,0.000287151844,0.000440399167,0.000568190141
-1.3,8.70012506e-08,6.12903239e-06,9.24055869e-05,0.000273570375,0.000427577806,0.000556096905
-1.35,8.48578383e-08,5.78030561e-06,7.93351939e-05,0.000260058988,0.00041481331,0.000544053021
-1.4,8.2851042e-08,5.47761748e-06,6.70953024e-05,0.000246618808,0.000402105502,0.000532058282
-1.45,8.09680634e-08,5.21160582e-06,5.60695448e-05,0.000233251483,0.000389454232,0.000520112484
-1.5,7.91976857e-08,4.97547494e-06,4.66543194e-05,0.000219959414,0.000376859373,0.000508215431
-1.55,7.75300305e-08,4.76412997e-06,3.90799e-05,0.000206746091,0.000364320832,0.000496366929
-1.6,7.59563595e-08,4.57364824e-06,3.32764377e-05,0.000193616622,0.000351838558,0.000484566791
-1.65,7.44689118e-08,4.40094249e-06,2.89313913e-05,0.000180578544,0.000339412549,0.000472814837
-1.7,7.30607683e-08,4.24353809e-06,2.56648064e-05,0.000167643111,0.000327042866,0.000461110894
-1.75,7.17257389e-08,4.09942074e-06,2.31552313e-05,0.000154827343,0.000314729653,0.000449454797
-1.8,7.04582677e-08,3.96692921e-06,2.11726667e-05,0.000142157293,0.000302473157,0.000437846393
-1.85,6.92533524e-08,3.844678e-06,1.9563503e-05,0.000129673176,0.000290273761,0.000426285538
-1.9,6.81064767e-08,3.73150021e-06,1.82265656e-05,0.000117437138,0.000278132027,0.000414772103
-1.95,6.70135518e-08,3.62640456e-06,1.70942398e-05,0.000105543966,0.000266048753,0.000403305974
-2.0,6.59708667e-08,3.52854255e-06,1.61201017e-05,9.41329742e-05,0.000254025057,0.000391887056
-2.05,6.49750448e-08,3.43718291e-06,1.52712876e-05,8.33940827e-05,0.000242062492,0.000380515277
-2.1,6.40230071e-08,3.35169156e-06,1.45238324e-05,7.35536287e-05,0.000230163213,0.000369190591
-2.15,6.31119398e-08,3.2715156e-06,1.38597854e-05,6.48259605e-05,0.000218330216,0.000357912985
-2.2,6.22392663e-08,3.19617046e-06,1.32653805e-05,5.73412925e-05,0.000206567692,0.000346682487
-2.25,6.14026221e-08,3.12522951e-06,1.27298449e-05,5.10961936e-05,0.00019488155,0.000335499173
-2.3,6.05998339e-08,3.05831547e-06,1.22445997e-05,4.59664536e-05,0.000183280204,0.000324363179
-2.35,5.98289003e-08,2.99509341e-06,1.18027106e-05,4.17662097e-05,0.000171775743,0.00031327472
-2.4,5.90879749e-08,2.93526485e-06,1.13984987e-05,3.83059021e-05,0.000160385706,0.000302234105
-2.45,5.83753517e-08,2.87856293e-06,1.10272608e-05,3.54233137e-05,0.000149135697,0.000291241766
-2.5,5.76894522e-08,2.82474824e-06,1.06850626e-05,3.29911217e-05,0.000138063132,0.000280298294
-2.55,5.70288132e-08,2.77360537e-06,1.03685839e-05,3.09130593e-05,0.000127222234,0.000269404484
-2.6,5.63920767e-08,2.72493994e-06,1.00750008e-05,2.91170582e-05,0.000116689751,0.000258561401
-2.65,5.57779807e-08,2.67857609e-06,9.8018944e-06,2.75489146e-05,0.00010656937,0.000247770467
-2.7,5.51853508e-08,2.63435428e-06,9.54717938e-06,2.6167388e-05,9.69903817e-05,0.000237033581
-2.75,5.46130924e-08,2.59212947e-06,9.30904753e-06,2.49406523e-05,8.80946425e-05,0.000226353292
-2.8,5.40601847e-08,2.55176945e-06,9.08592257e-06,2.38437852e-05,8.00095153e-05,0.000215733038
-2.85,5.35256741e-08,2.51315348e-06,8.87642365e-06,2.28569948e-05,7.28152904e-05,0.000205177493
-2.9,5.30086689e-08,2.47617106e-06,8.67933562e-06,2.19643593e-05,6.65248827e-05,0.000194693055
-2.95,5.25083344e-08,2.44072087e-06,8.49358466e-06,2.11529179e-05,6.10876684e-05,0.000184288562
-3.0,5.20238885e-08,2.40670979e-06,8.3182181e-06,2.04120069e-05,5.64118899e-05,0.000173976312
-3.05,5.15545978e-08,2.37405214e-06,8.15238771e-06,1.97327684e-05,5.23903685e-05,0.000163773514
-3.1,5.10997734e-08,2.34266893e-06,7.99533562e-06,1.91077794e-05,4.89188737e-05,0.000153704299
-3.15,5.06587683e-08,2.31248718e-06,7.84638257e-06,1.85307706e-05,4.59052564e-05,0.000143802335
-3.2,5.02309738e-08,2.28343943e-06,7.70491785e-06,1.79964085e-05,4.32720686e-05,0.000134113898
-3.25,4.98158169e-08,2.25546316e-06,7.57039089e-06,1.75001261e-05,4.09558393e-05,0.000124700695
-3.3,4.94127578e-08,2.22850039e-06,7.44230394e-06,1.7037989e-05,3.8905096e-05,0.000115640832
-3.35,4.90212875e-08,2.20249724e-06,7.32020588e-06,1.66065888e-05,3.70781824e-05,0.000107025486
-3.4,4.8640926e-08,2.17740362e-06,7.20368689e-06,1.62029575e-05,3.54412977e-05,9.89490845e-05
-3.45,4.82712198e-08,2.15317286e-06,7.09237376e-06,1.58244987e-05,3.39668725e-05,9.14936916e-05
-3.5,4.79117406e-08,2.12976144e-06,6.9859259e-06,1.54689305e-05,3.26322764e-05,8.47128324e-05
-3.55,4.75620832e-08,2.10712874e-06,6.88403187e-06,1.51342392e-05,3.14188036e-05,7.86221312e-05
-3.6,4.72218646e-08,2.08523678e-06,6.78640628e-06,1.48186412e-05,3.03108839e-05,7.32006261e-05
-3.65,4.68907219e-08,2.06405004e-06,6.69278714e-06,1.45205506e-05,2.9295468e-05,6.84003848e-05
-3.7,4.65683115e-08,2.04353524e-06,6.60293347e-06,1.42385526e-05,2.83615465e-05,6.41587613e-05
-3.75,4.62543077e-08,2.02366118e-06,6.5166233e-06,1.3971381e-05,2.74997725e-05,6.04087688e-05
-3.8,4.59484016e-08,2.00439858e-06,6.43365176e-06,1.37178992e-05,2.67021634e-05,5.70858727e-05
-3.85,4.56503002e-08,1.98571995e-06,6.35382951e-06,1.34770839e-05,2.59618631e-05,5.41315156e-05
-3.9,4.53597253e-08,1.96759943e-06,6.27698126e-06,1.32480113e-05,2.52729523e-05,5.14944002e-05
-3.95,4.50764126e-08,1.95001269e-06,6.20294452e-06,1.30298454e-05,2.46302944e-05,4.91304889e-05
-4.0,4.48001111e-08,1.93293682e-06,6.13156844e-06,1.28218278e-05,2.40294118e-05,4.70023868e-05
-4.05,4.4530582e-08,1.91635023e-06,6.06271281e-06,1.26232686e-05,2.34663838e-05,4.50784988e-05
-4.1,4.42675982e-08,1.90023256e-06,5.99624711e-06,1.24335392e-05,2.29377632e-05,4.3332165e-05
-4.15,4.40109437e-08,1.88456459e-06,5.93204969e-06,1.22520654e-05,2.24405071e-05,4.17408659e-05
-4.2,4.37604128e-08,1.86932818e-06,5.87000707e-06,1.20783219e-05,2.19719199e-05,4.0285531e-05
-4.25,4.35158096e-08,1.85450615e-06,5.81001324e-06,1.19118269e-05,2.15296049e-05,3.89499559e-05
-4.3,4.32769473e-08,1.8400823e-06,5.75196906e-06,1.17521377e-05,2.11114247e-05,3.7720317e-05
-4.35,4.30436481e-08,1.82604128e-06,5.69578174e-06,1.15988471e-05,2.07154665e-05,3.65847722e-05
-4.4,4.28157422e-08,1.81236854e-06,5.64136431e-06,1.14515797e-05,2.0340014e-05,3.55331333e-05
-4.45,4.25930678e-08,1.79905033e-06,5.58863523e-06,1.13099888e-05,1.99835228e-05,3.45565973e-05
-4.5,4.23754703e-08,1.78607358e-06,5.53751792e-06,1.1173754e-05,1.9644599e-05,3.36475257e-05
-4.55,4.21628022e-08,1.77342593e-06,5.48794042e-06,1.10425783e-05,1.93219819e-05,3.27992632e-05
-4.6,4.19549225e-08,1.76109562e-06,5.43983509e-06,1.09161866e-05,1.90145283e-05,3.20059879e-05
-4.65,4.17516967e-08,1.74907151e-06,5.39313822e-06,1.0794323e-05,1.8721199e-05,3.12625874e-05
-4.7,4.15529959e-08,1.73734301e-06,5.34778984e-06,1.067675e-05,1.84410477e-05,3.05645561e-05
-4.75,4.13586972e-08,1.72590006e-06,5.30373339e-06,1.05632461e-05,1.81732102e-05,2.99079086e-05
-4.8,4.11686826e-08,1.71473309e-06,5.26091553e-06,1.04536049e-05,1.79168963e-05,2.92891081e-05
-4.85,4.09828395e-08,1.70383301e-06,5.21928591e-06,1.0347634e-05,1.76713819e-05,2.87050059e-05
-4.9,4.08010599e-08,1.69319115e-06,5.17879695e-06,1.02451532e-05,1.74360019e-05,2.81527899e-05
-4.95,4.06232405e-08,1.68279928e-06,5.1394037e-06,1.01459944e-05,1.7210145e-05,2.76299414e-05
-5.0,4.04492822e-08,1.67264955e-06,5.10106365e-06,1.00499998e-05,1.69932478e-05,2.71341982e-05
-5.05,4.02790898e-08,1.66273449e-06,5.06373654e-06,9.95702191e-06,1.67847902e-05,2.66635228e-05
-5.1,4.01125725e-08,1.65304696e-06,5.02738429e-06,9.86692204e-06,1.6584292e-05,2.62160758e-05
-5.15,3.99496427e-08,1.64358019e-06,4.99197079e-06,9.77957012e-06,1.63913082e-05,2.57901921e-05
-5.2,3.97902165e-08,1.63432768e-06,4.95746183e-06,9.69484387e-06,1.62054268e-05,2.53843613e-05
-5.25,3.96342134e-08,1.62528326e-06,4.92382498e-06,9.6126283e-06,1.60262649e-05,2.499721e-05
-5.3,3.94815559e-08,1.61644102e-06,4.89102944e-06,9.53281515e-06,1.5853467e-05,2.46274867e-05
-5.35,3.93321695e-08,1.60779532e-06,4.859046e-06,9.45530244e-06,1.56867021e-05,2.42740488e-05
-5.4,3.91859828e-08,1.59934079e-06,4.82784691e-06,9.37999403e-06,1.55256618e-05,2.39358509e-05
-5.45,3.90429269e-08,1.59107227e-06,4.7974058e-06,9.30679924e-06,1.53700583e-05,2.36119348e-05
-5.5,3.89029354e-08,1.58298484e-06,4.76769761e-06,9.23563246e-06,1.52196231e-05,2.33014207e-05
-5.55,3.87659446e-08,1.5750738e-06,4.73869852e-06,9.1664128e-06,1.50741048e-05,2.30034993e-05
-5.6,3.86318929e-08,1.56733464e-06,4.71038586e-06,9.09906384e-06,1.49332685e-05,2.2717425e-05
-5.65,3.85007212e-08,1.55976305e-06,4.68273805e-06,9.03351329e-06,1.47968938e-05,2.24425095e-05
-5.7,3.83723721e-08,1.5523549e-06,4.65573455e-06,8.96969274e-06,1.46647743e-05,2.21781168e-05
-5.75,3.82467906e-08,1.54510623e-06,4.62935581e-06,8.90753743e-06,1.45367161e-05,2.19236583e-05
-5.8,3.81239235e-08,1.53801325e-06,4.60358319e-06,8.84698601e-06,1.44125371e-05,2.16785881e-05
-5.85,3.80037192e-08,1.53107232e-06,4.57839891e-06,8.78798034e-06,1.42920661e-05,2.14423998e-05
-5.9,3.78861281e-08,1.52427995e-06,4.55378605e-06,8.73046528e-06,1.41751421e-05,2.12146224e-05
-5.95,3.77711021e-08,1.51763279e-06,4.52972844e-06,8.67438854e-06,1.40616133e-05,2.09948179e-05
-6.0,3.76585947e-08,1.51112762e-06,4.50621066e-06,8.61970049e-06,1.39513368e-05,2.07825781e-05
-6.05,3.75485611e-08,1.50476135e-06,4.48321798e-06,8.56635399e-06,1.38441778e-05,2.0577522e-05
-6.1,3.74409575e-08,1.49853102e-06,4.46073636e-06,8.51430428e-06,1.37400091e-05,2.0379294e-05
-6.15,3.73357418e-08,1.49243375e-06,4.43875234e-06,8.46350882e-06,1.36387106e-05,2.01875618e-05
-6.2,3.72328731e-08,1.48646681e-06,4.41725311e-06,8.41392718e-06,1.35401689e-05,2.0002014e-05
-6.25,3.71323117e-08,1.48062755e-06,4.39622637e-06,8.3655209e-06,1.34442767e-05,1.98223593e-05
-6.3,3.70340191e-08,1.47491341e-06,4.37566038e-06,8.31825339e-06,1.33509324e-05,1.96483243e-05
-6.35,3.69379579e-08,1.46932194e-06,4.3555439e-06,8.27208982e-06,1.32600401e-05,1.94796525e-05
-6.4,3.68440918e-08,1.46385077e-06,4.33586617e-06,8.22699704e-06,1.31715089e-05,1.9316103e-05
-6.45,3.67523856e-08,1.45849761e-06,4.31661689e-06,8.18294348e-06,1.30852525e-05,1.91574493e-05
-6.5,3.66628048e-08,1.45326026e-06,4.29778616e-06,8.13989904e-06,1.30011894e-05,1.90034783e-05
-6.55,3.6575316e-08,1.44813658e-06,4.27936452e-06,8.09783504e-06,1.29192421e-05,1.88539894e-05
-6.6,3.64898869e-08,1.44312452e-06,4.26134289e-06,8.05672413e-06,1.28393372e-05,1.87087934e-05
