vds,vb1,vb2,vb3,vb4,vb5,vb6
0.0,8.24563299e-05,0.000574709521,0.000933581897,0.00121108955,0.00142649469,0.00160722382
-0.05,5.52595172e-05,0.000540995362,0.000901569236,0.0011810405,0.00139833768,0.00158074116
-0.1,3.00915763e-05,0.000507683818,0.000869878025,0.00115125583,0.00137040262,0.00155444844
-0.15,1.16820712e-05,0.000474770715,0.000838504792,0.00112173302,0.00134268759,0.00152834416
-0.2,4.34706204e-06,0.000442252444,0.000807446121,0.00109246954,0.00131519069,0.00150242683
-0.25,2.49731589e-06,0.000410126218,0.000776698663,0.00106346291,0.00128791003,0.00147669498
-0.3,1.9468299e-06,0.000378390508,0.000746259135,0.00103471066,0.00126084374,0.00145114713
-0.35,1.71178586e-06,0.00034704577,0.000716124332,0.00100621037,0.00123398996,0.00142578183
-0.4,1.57843351e-06,0.000316095735,0.000686291137,0.000977959614,0.00120734686,0.00140059764
-0.45,1.48806948e-06,0.000285549759,0.000656756541,0.00094995603,0.00118091262,0.00137559313
-0.5,1.42018748e-06,0.000255427263,0.000627517656,0.000922197266,0.00115468543,0.00135076687
-0.55,1.36602939e-06,0.000225766467,0.000598571754,0.000894681007,0.0011286635,0.00132611746
-0.6,1.32119643e-06,0.000196642144,0.0005699163,0.00086740497,0.00110284505,0.00130164349
-0.65,1.28317866e-06,0.000168202365,0.000541549013,0.000840366912,0.00107722835,0.00127734358
-0.7,1.25039648e-06,0.000140743031,0.00051346795,0.000813564624,0.00105181164,0.00125321634
-0.75,1.22177966e-06,0.000114841799,0.000485671624,0.000786995945,0.0010265932,0.00122926041
-0.8,1.19656194e-06,9.15124393e-05,0.000458159185,0.000760658758,0.00100157135,0.00120547443
-0.85,1.1741715e-06,7.21039587e-05,0.000430930697,0.000734551,0.000976744392,0.00118185707
-0.9,1.15416795e-06,5.75435608e-05,0.000403987562,0.000708670668,0.000952110671,0.00115840698
-0.95,1.13620372e-06,4.75011489e-05,0.000377333203,0.000683015827,0.000927668548,0.00113512286
-1.0,1.11999916e-06,4.07305066e-05,0.000350974167,0.000657584624,0.000903416406,0.00111200338
-1.05,1.10532571e-06,3.60118871e-05,0.000324921964,0.000632375301,0.000879352651,0.00108904726
-1.1,1.0919941e-06,3.25404671e-05,0.000299196209,0.000607386212,0.000855475714,0.00106625322
-1.15,1.0798459e-06,2.98549183e-05,0.00027383005,0.000582615856,0.00083178405,0.00104361998
-1.2,1.06874723e-06,2.76945665e-05,0.000248879669,0.000558062907,0.000808276145,0.0010211463
-1.25,1.05858403e-06,2.59058407e-05,0.000224440716,0.000533726268,0.000784950509,0.000998830931
-1.3,1.04925844e-06,2.4392786e-05,0.00020067534,0.000509605134,0.000761805688,0.000976672647
-1.35,1.04068591e-06,2.3091897e-05,0.00017785085,0.000485699097,0.000738840258,0.000954670237
-1.4,1.03279303e-06,2.19590072e-05,0.000156376492,0.000462008281,0.000716052833,0.000932822506
-1.45,1.02551566e-06,2.09621299e-05,0.000136790204,0.000438533549,0.000693442065,0.000911128272
-1.5,1.01879756e-06,2.00773319e-05,0.000119625049,0.000415276813,0.000671006651,0.00088958637
-1.55,1.01258911e-06,1.92862315e-05,0.000105176408,0.000392241502,0.000648745337,0.000868195648
-1.6,1.00684645e-06,1.85744066e-05,9.33623928e-05,0.00036943329,0.000626656919,0.000846954973
-1.65,1.00153059e-06,1.79303414e-05,8.3814167e-05,0.000346861256,0.000604740259,0.000825863227
-1.7,9.96606771e-07,1.73447042e-05,7.60735506e-05,0.000324539763,0.000582994284,0.000804919308
-1.75,9.92043915e-07,1.6809838e-05,6.97280657e-05,0.000302491557,0.000561418001,0.000784122132
-1.8,9.87814132e-07,1.63193909e-05,6.44535201e-05,0.000280752899,0.000540010504,0.000763470627
-1.85,9.83892327e-07,1.58680435e-05,6.00081733e-05,0.000259381984,0.000518770988,0.000742963742
-1.9,9.80255857e-07,1.54513035e-05,5.62139712e-05,0.000238472049,0.000497698761,0.000722600435
-1.95,9.76884238e-07,1.50653482e-05,5.29389709e-05,0.000218169311,0.000476793257,0.000702379682
-2.0,9.73758892e-07,1.47069027e-05,5.00840798e-05,0.000198690434,0.000456054049,0.000682300467
-2.05,9.70862932e-07,1.4373144e-05,4.75737084e-05,0.00018032302,0.000435480856,0.000662361783
-2.1,9.68180975e-07,1.40616247e-05,4.53492946e-05,0.000163385186,0.000415073556,0.000642562622
-2.15,9.65698975e-07,1.37702122e-05,4.33648033e-05,0.000148141302,0.000394832199,0.000622901971
-2.2,9.63404084e-07,1.34970391e-05,4.15835617e-05,0.000134719027,0.000374757054,0.000603378795
-2.25,9.61284525e-07,1.32404631e-05,3.99760001e-05,0.000123085252,0.000354848778,0.000583992021
-2.3,9.59329485e-07,1.2999034e-05,3.85180136e-05,0.000113086378,0.000335108916,0.000564740505
-2.35,9.57529017e-07,1.27714659e-05,3.71897568e-05,0.000104511393,0.00031554129,0.000545622991
-2.4,9.55873956e-07,1.25566148e-05,3.59747425e-05,9.71416197e-05,0.000296155423,0.000526638042
-2.45,9.54355845e-07,1.23534593e-05,3.48591613e-05,9.07776024e-05,0.000276974185,0.000507783946
-2.5,9.52966865e-07,1.21610847e-05,3.38313586e-05,8.52488472e-05,0.000258048493,0.000489058565
-2.55,9.5169978e-07,1.19786692e-05,3.28814308e-05,8.04143198e-05,0.000239479951,0.000470459121
-2.6,9.50547882e-07,1.18054727e-05,3.2000908e-05,7.61591141e-05,0.000221443785,0.000451981874
-2.65,9.49504945e-07,1.16408264e-05,3.11825043e-05,7.23900994e-05,0.000204191098,0.000433621657
-2.7,9.48565182e-07,1.14841248e-05,3.04199176e-05,6.90317615e-05,0.000188008928,0.000415371224
-2.75,9.47723206e-07,1.13348181e-05,2.97076691e-05,6.60226497e-05,0.000173146212,0.000397220385
-2.8,9.46974001e-07,1.11924063e-05,2.90409734e-05,6.33124906e-05,0.000159748756,0.000379154976
-2.85,9.46312887e-07,1.10564331e-05,2.8415632e-05,6.08598998e-05,0.000147839993,0.000361155943
-2.9,9.45735492e-07,1.09264818e-05,2.78279464e-05,5.86305867e-05,0.000137345065,0.000343199332
-2.95,9.45237733e-07,1.08021709e-05,2.72746453e-05,5.65959501e-05,0.000128131652,0.000325258932
-3.0,9.44815785e-07,1.06831502e-05,2.67528253e-05,5.47319792e-05,0.000120045731,0.000307314679
-3.05,9.4446607e-07,1.0569098e-05,2.62599004e-05,5.30183902e-05,0.000112934671,0.000289370576
-3.1,9.44185231e-07,1.04597181e-05,2.57935597e-05,5.14379448e-05,0.000106659012,0.000271482977
-3.15,9.43970119e-07,1.03547374e-05,2.53517319e-05,4.99759089e-05,0.000101096852,0.000253790451
-3.2,9.43817776e-07,1.02539036e-05,2.49325552e-05,4.86196208e-05,9.61441873e-05,0.000236523708
-3.25,9.43725425e-07,1.01569834e-05,2.45343511e-05,4.73581437e-05,9.17134004e-05,0.000219974722
-3.3,9.4369045e-07,1.00637605e-05,2.41556029e-05,4.61819851e-05,8.77310954e-05,0.000204429979
-3.35,9.43710393e-07,9.97403431e-06,2.37949363e-05,4.50828684e-05,8.4135874e-05,0.000190102825
-3.4,9.43782937e-07,9.88761859e-06,2.34511033e-05,4.40535459e-05,8.08763097e-05,0.00017709938
-3.45,9.43905898e-07,9.80433999e-06,2.31229677e-05,4.30876454e-05,7.79092056e-05,0.000165424234
-3.5,9.44077218e-07,9.72403709e-06,2.28094935e-05,4.21795422e-05,7.5198139e-05,0.000155009004
-3.55,9.44294955e-07,9.64655935e-06,2.25097335e-05,4.13242539e-05,7.27122654e-05,0.000145744444
-3.6,9.44557274e-07,9.57176628e-06,2.22228203e-05,4.05173516e-05,7.0425344e-05,0.000137505608
-3.65,9.44862445e-07,9.49952656e-06,2.19479578e-05,3.97548855e-05,6.83149453e-05,0.000130167848
-3.7,9.45208832e-07,9.42971734e-06,2.16844146e-05,3.90333223e-05,6.63618079e-05,0.000123615348
-3.75,9.45594888e-07,9.36222358e-06,2.1431517e-05,3.83494917e-05,6.4549315e-05,0.000117744738
-3.8,9.46019149e-07,9.29693744e-06,2.11886435e-05,3.77005417e-05,6.28630672e-05,0.000112465871
-3.85,9.46480233e-07,9.23375773e-06,2.09552203e-05,3.70838991e-05,6.1290533e-05,0.000107701155
-3.9,9.4697683e-07,9.17258945e-06,2.07307163e-05,3.64972368e-05,5.98207617e-05,0.000103384261
-3.95,9.47507701e-07,9.1133433e-06,2.05146395e-05,3.59384453e-05,5.84441455e-05,9.94586484e-05
-4.0,9.48071671e-07,9.05593527e-06,2.03065335e-05,3.54056074e-05,5.71522237e-05,9.58761382e-05
-4.05,9.48667629e-07,9.00028629e-06,2.01059742e-05,3.48969775e-05,5.59375183e-05,9.25956191e-05
-4.1,9.49294522e-07,8.94632188e-06,1.9912567e-05,3.44109623e-05,5.47933975e-05,8.9581928e-05
-4.15,9.49951352e-07,8.89397181e-06,1.97259446e-05,3.39461051e-05,5.37139605e-05,8.68048977e-05
-4.2,9.50637172e-07,8.84316984e-06,1.95457642e-05,3.35010711e-05,5.26939407e-05,8.42385578e-05
-4.25,9.51351087e-07,8.79385344e-06,1.93717062e-05,3.30746351e-05,5.17286233e-05,8.18604694e-05
-4.3,9.52092245e-07,8.74596355e-06,1.92034714e-05,3.26656708e-05,5.08137758e-05,7.96511722e-05
-4.35,9.5285984e-07,8.69944435e-06,1.90407805e-05,3.22731406e-05,4.99455881e-05,7.75937252e-05
-4.4,9.53653109e-07,8.65424306e-06,1.88833713e-05,3.18960873e-05,4.91206216e-05,7.56733264e-05
-4.45,9.54471326e-07,8.61030974e-06,1.87309986e-05,3.15336264e-05,4.83357654e-05,7.3876995e-05
-4.5,9.55313802e-07,8.56759713e-06,1.8583432e-05,3.11849396e-05,4.75881983e-05,7.21933074e-05
-4.55,9.56179887e-07,8.52606045e-06,1.84404553e-05,3.08492685e-05,4.68753561e-05,7.06121758e-05
-4.6,9.5706896e-07,8.48565729e-06,1.83018654e-05,3.05259093e-05,4.61949032e-05,6.91246627e-05
-4.65,9.57980435e-07,8.44634744e-06,1.81674711e-05,3.0214208e-05,4.55447076e-05,6.77228243e-05
-4.7,9.58913755e-07,8.40809276e-06,1.80370926e-05,2.99135563e-05,4.49228197e-05,6.63995789e-05
-4.75,9.59868391e-07,8.37085709e-06,1.79105604e-05,2.96233874e-05,4.4327453e-05,6.51485942e-05
-4.8,9.60843841e-07,8.33460609e-06,1.7787715e-05,2.93431729e-05,4.37569675e-05,6.39641928e-05
-4.85,9.61839631e-07,8.29930716e-06,1.76684056e-05,2.90724194e-05,4.32098552e-05,6.28412705e-05
-4.9,9.62855308e-07,8.26492934e-06,1.75524903e-05,2.88106658e-05,4.26847271e-05,6.17752263e-05
-4.95,9.63890446e-07,8.23144319e-06,1.74398347e-05,2.85574806e-05,4.21803017e-05,6.0761903e-05
-5.0,9.64944636e-07,8.19882077e-06,1.73303122e-05,2.83124599e-05,4.16953949e-05,5.97975353e-05
-5.05,9.66017495e-07,8.16703547e-06,1.7223803e-05,2.80752251e-05,4.1228911e-05,5.88787051e-05
-5.1,9.67108656e-07,8.13606201e-06,1.71201936e-05,2.7845421e-05,4.07798346e-05,5.80023028e-05
-5.15,9.68217773e-07,8.10587632e-06,1.70193769e-05,2.76227139e-05,4.03472234e-05,5.71654936e-05
-5.2,9.69344517e-07,8.07645549e-06,1.69212512e-05,2.74067905e-05,3.99302021e-05,5.63656877e-05
-5.25,9.70488576e-07,8.04777771e-06,1.68257206e-05,2.71973561e-05,3.95279561e-05,5.56005152e-05
-5.3,9.71649654e-07,8.01982222e-06,1.67326938e-05,2.69941333e-05,3.91397268e-05,5.48678028e-05
-5.35,9.7282747e-07,7.99256921e-06,1.66420846e-05,2.67968609e-05,3.87648069e-05,5.41655544e-05
-5.4,9.74021758e-07,7.96599982e-06,1.6553811e-05,2.66052927e-05,3.84025359e-05,5.34919334e-05
-5.45,9.75232265e-07,7.94009607e-06,1.64677955e-05,2.64191968e-05,3.80522967e-05,5.2845247e-05
-5.5,9.76458753e-07,7.91484081e-06,1.63839643e-05,2.62383541e-05,3.7713512e-05,5.22239328e-05
-5.55,9.77700993e-07,7.89021767e-06,1.63022474e-05,2.6062558e-05,3.73856412e-05,5.16265465e-05
-5.6,9.78958771e-07,7.86621102e-06,1.62225785e-05,2.58916132e-05,3.70681778e-05,5.10517509e-05
-5.65,9.80231883e-07,7.84280596e-06,1.61448944e-05,2.57253352e-05,3.67606465e-05,5.04983062e-05
-5.7,9.81520134e-07,7.81998824e-06,1.60691352e-05,2.55635497e-05,3.64626013e-05,4.99650618e-05
-5.75,9.82823342e-07,7.79774425e-06,1.59952439e-05,2.54060916e-05,3.6173623e-05,4.94509481e-05
-5.8,9.84141331e-07,7.77606097e-06,1.59231663e-05,2.52528049e-05,3.58933176e-05,4.89549695e-05
-5.85,9.85473938e-07,7.75492596e-06,1.58528509e-05,2.51035418e-05,3.56213142e-05,4.84761987e-05
-5.9,9.86821005e-07,7.73432733e-06,1.57842487e-05,2.49581624e-05,3.53572638e-05,4.80137705e-05
-5.95,9.88182383e-07,7.71425367e-06,1.57173128e-05,2.48165341e-05,3.51008376e-05,4.75668772e-05
-6.0,9.89557933e-07,7.69469408e-06,1.5651999e-05,2.46785313e-05,3.48517253e-05,4.71347636e-05
-6.05,9.90947519e-07,7.67563809e-06,1.55882649e-05,2.45440349e-05,3.46096348e-05,4.67167234e-05
-6.1,9.92351016e-07,7.65707571e-06,1.55260702e-05,2.4412932e-05,3.43742899e-05,4.63120948e-05
-6.15,9.93768304e-07,7.6389973e-06,1.54653764e-05,2.42851153e-05,3.41454302e-05,4.59202577e-05
-6.2,9.95199267e-07,7.62139367e-06,1.54061469e-05,2.41604833e-05,3.39228094e-05,4.55406303e-05
-6.25,9.96643798e-07,7.60425596e-06,1.53483467e-05,2.40389395e-05,3.3706195e-05,4.51726663e-05
-6.3,9.98101793e-07,7.58757567e-06,1.52919425e-05,2.39203922e-05,3.34953672e-05,4.48158525e-05
-6.35,9.99573156e-07,7.57134462e-06,1.52369025e-05,2.38047543e-05,3.32901177e-05,4.44697063e-05
-6.4,1.00105779e-06,7.55555498e-06,1.51831962e-05,2.36919432e-05,3.30902499e-05,4.41337737e-05
-6.45,1.00255562e-06,7.54019917e-06,1.51307946e-05,2.35818803e-05,3.28955775e-05,4.38076269e-05
-6.5,1.00406654e-06,7.52526992e-06,1.50796699e-05,2.34744909e-05,3.2705924e-05,4.34908634e-05
-6.55,1.00559049e-06,7.51076022e-06,1.50297955e-05,2.33697038e-05,3.25211224e-05,4.31831034e-05
-6.6,1.00712739e-06,7.4966633e-06,1.49811461e-05,2.32674517e-05,3.23410143e-05,4.28839889e-05
