vds,vb1,vb2,vb3,vb4,vb5,vb6
0.0,4.60231122e-05,0.00032071952,0.000513914471,0.0006622755,0.000779890292,0.000876135703
-0.05,3.11377216e-05,0.000302123346,0.00049623147,0.000645668918,0.000764305901,0.000861476192
-0.1,1.7333608e-05,0.000283773766,0.000478744073,0.000629222148,0.000748855111,0.000846930482
-0.15,7.04492865e-06,0.000265667755,0.000461449947,0.000612933516,0.000733536671,0.000832497609
-0.2,2.77344742e-06,0.000247802598,0.000444346797,0.000596801365,0.000718349342,0.000818176614
-0.25,1.67518158e-06,0.000230176011,0.000427432372,0.000580824057,0.000703291898,0.000803966545
-0.3,1.3507281e-06,0.000212786363,0.000410704463,0.000564999972,0.000688363122,0.000789866461
-0.35,1.21334029e-06,0.000195633026,0.000394160909,0.000549327508,0.000673561809,0.000775875425
-0.4,1.13566431e-06,0.000178717003,0.000377799609,0.000533805084,0.000658886764,0.00076199251
-0.45,1.08308613e-06,0.000162042041,0.000361618521,0.000518431134,0.000644336804,0.000748216794
-0.5,1.04362878e-06,0.000145616725,0.000345615681,0.000503204117,0.000629910757,0.000734547365
-0.55,1.01220788e-06,0.000129458515,0.000329789219,0.00048812251,0.000615607461,0.000720983314
-0.6,9.86275417e-07,0.000113601861,0.000314137374,0.000473184813,0.000601425765,0.000707523744
-0.65,9.64375878e-07,9.81148022e-05,0.000298658535,0.000458389549,0.00058736453,0.000694167761
-0.7,9.4559022e-07,8.31326245e-05,0.000283351277,0.000443735269,0.000573422629,0.00068091448
-0.75,9.29292958e-07,6.89199823e-05,0.000268214431,0.000429220549,0.000559598947,0.000667763024
-0.8,9.15034065e-07,5.59527742e-05,0.000253247178,0.000414843997,0.000545892382,0.000654712523
-0.85,9.02476094e-07,4.49116704e-05,0.000238449192,0.000400604254,0.000532301843,0.000641762115
-0.9,8.91357996e-07,3.6368415e-05,0.000223820871,0.000386499999,0.000518826255,0.000628910944
-0.95,8.81472917e-07,3.03060669e-05,0.000209363691,0.000372529953,0.000505464556,0.000616158166
-1.0,8.72653817e-07,2.61437165e-05,0.000195080783,0.000358692884,0.0004922157,0.000603502941
-1.05,8.64763737e-07,2.32157071e-05,0.0001809779,0.00034498762,0.000479078654,0.00059094444
-1.1,8.57688954e-07,2.10509397e-05,0.000167065037,0.000331413055,0.000466052404,0.000578481843
-1.15,8.51334036e-07,1.93709211e-05,0.000153359245,0.000317968163,0.000453135948,0.000566114338
-1.2,8.4561817e-07,1.80163613e-05,0.000139889518,0.000304652021,0.000440328307,0.000553841123
-1.25,8.40472376e-07,1.68929383e-05,0.0001267052,0.000291463833,0.000427628517,0.000541661405
-1.3,8.35837364e-07,1.5941524e-05,0.000113889728,0.000278402964,0.000415035634,0.0005295744
-1.35,8.31661853e-07,1.51228611e-05,0.000101580113,0.000265468996,0.000402548733,0.000517579334
-1.4,8.27901239e-07,1.44095581e-05,8.9985109e-05,0.000252661797,0.000390166912,0.000505675445
-1.45,8.24516527e-07,1.37817133e-05,7.93777976e-05,0.000239981628,0.000377889291,0.000493861979
-1.5,8.21473467e-07,1.32243929e-05,7.00281912e-05,0.000227429305,0.000365715015,0.000482138191
-1.55,8.18741844e-07,1.27260978e-05,6.20879136e-05,0.000215006429,0.000353643252,0.000470503348
-1.6,8.16294902e-07,1.22777862e-05,5.55217838e-05,0.000202715767,0.0003416732,0.000458956726
-1.65,8.14108853e-07,1.18722259e-05,5.01510992e-05,0.000190561828,0.000329804083,0.000447497613
-1.7,8.1216248e-07,1.15035476e-05,4.57489612e-05,0.000178551827,0.000318035154,0.000436125304
-1.75,8.10436796e-07,1.11669294e-05,4.21067514e-05,0.000166697267,0.000306365699,0.000424839104
-1.8,8.08914756e-07,1.08583678e-05,3.90568346e-05,0.000155016626,0.000294795026,0.000413638328
-1.85,8.0758102e-07,1.05745072e-05,3.64715108e-05,0.00014353985,0.000283322471,0.000402522297
-1.9,8.06421738e-07,1.03125121e-05,3.42549101e-05,0.00013231557,0.000271947379,0.000391490339
-1.95,8.05424381e-07,1.00699686e-05,3.23348299e-05,0.000121421199,0.00026066909,0.000380541786
-2.0,8.0457758e-07,9.84480767e-06,3.06563154e-05,0.000110972749,0.000249486904,0.00036967597
-2.05,8.03871001e-07,9.63524535e-06,2.91769876e-05,0.000101124347,0.000238400028,0.000358892222
-2.1,8.03295226e-07,9.43973471e-06,2.78637232e-05,9.20439231e-05,0.00022740748,0.000348189858
-2.15,8.02841657e-07,9.25692752e-06,2.66902962e-05,8.38662307e-05,0.000216507969,0.000337568179
-2.2,8.02502428e-07,9.08564312e-06,2.5635691e-05,7.66510519e-05,0.000205699708,0.000327026447
-2.25,8.02270328e-07,8.92484306e-06,2.46828789e-05,7.03752918e-05,0.000194980249,0.000316563871
-2.3,8.02138736e-07,8.77361017e-06,2.3817922e-05,6.4956629e-05,0.00018434646,0.00030617957
-2.35,8.0210156e-07,8.63113136e-06,2.30293048e-05,6.02857515e-05,0.000173795134,0.000295872532
-2.4,8.02153189e-07,8.49668315e-06,2.2307433e-05,5.62505062e-05,0.000163325243,0.000285641542
-2.45,8.02288444e-07,8.36961966e-06,2.16442493e-05,5.27486555e-05,0.000152943752,0.000275485081
-2.5,8.02502538e-07,8.24936245e-06,2.10329393e-05,4.96924568e-05,0.000142677165,0.000265401172
-2.55,8.02791041e-07,8.13539191e-06,2.04677006e-05,4.70088877e-05,0.000132588306,0.000255387162
-2.6,8.03149846e-07,8.02723998e-06,1.99435628e-05,4.4638047e-05,0.000122789989,0.000245439385
-2.65,8.03575141e-07,7.92448388e-06,1.94562434e-05,4.25310505e-05,0.000113439282,0.000235552699
-2.7,8.04063386e-07,7.82674078e-06,1.90020334e-05,4.06479983e-05,0.000104703397,0.000225719828
-2.75,8.04611283e-07,7.73366315e-06,1.85777044e-05,3.89562205e-05,9.67128722e-05,0.00021593053
-2.8,8.05215764e-07,7.64493483e-06,1.81804332e-05,3.74288371e-05,8.95313585e-05,0.000206170681
-2.85,8.05873964e-07,7.56026753e-06,1.78077408e-05,3.60436053e-05,8.31551553e-05,0.000196421677
-2.9,8.0658321e-07,7.47939785e-06,1.74574411e-05,3.47820067e-05,7.75325763e-05,0.000186661113
-2.95,8.07341006e-07,7.40208463e-06,1.7127599e-05,3.36285284e-05,7.25870284e-05,0.000176866637
-3.0,8.08145013e-07,7.32810666e-06,1.68164959e-05,3.25700955e-05,6.82346163e-05,0.000167025609
-3.05,8.08993043e-07,7.25726068e-06,1.65225996e-05,3.15956221e-05,6.43945547e-05,0.000157152151
-3.1,8.09883046e-07,7.18935955e-06,1.62445404e-05,3.06956554e-05,6.0994067e-05,0.000147307826
-3.15,8.10813099e-07,7.12423075e-06,1.59810897e-05,2.9862091e-05,5.79699368e-05,0.000137613498
-3.2,8.11781395e-07,7.06171492e-06,1.57311424e-05,2.90879448e-05,5.52683287e-05,0.000128237247
-3.25,8.12786239e-07,7.00166466e-06,1.5493702e-05,2.8367168e-05,5.28438549e-05,0.000119356806
-3.3,8.13826036e-07,6.94394345e-06,1.52678675e-05,2.76944983e-05,5.06584088e-05,0.000111115728
-3.35,8.14899286e-07,6.88842463e-06,1.50528219e-05,2.70653368e-05,4.86800141e-05,0.000103596851
-3.4,8.16004577e-07,6.83499056e-06,1.48478232e-05,2.64756482e-05,4.68817941e-05,9.68207523e-05
-3.45,8.17140579e-07,6.78353182e-06,1.46521957e-05,2.59218772e-05,4.5241089e-05,9.07606141e-05
-3.5,8.1830604e-07,6.73394651e-06,1.44653227e-05,2.54008803e-05,4.3738722e-05,8.53612937e-05
-3.55,8.19499778e-07,6.68613963e-06,1.42866405e-05,2.4909868e-05,4.23583933e-05,8.05551341e-05
-3.6,8.20720677e-07,6.64002249e-06,1.41156326e-05,2.44463568e-05,4.10861872e-05,7.62724265e-05
-3.65,8.21967688e-07,6.59551223e-06,1.39518248e-05,2.40081285e-05,3.99101687e-05,7.24472436e-05
-3.7,8.23239817e-07,6.55253133e-06,1.37947811e-05,2.35931958e-05,3.88200553e-05,6.90201143e-05
-3.75,8.24536127e-07,6.51100721e-06,1.36441002e-05,2.31997734e-05,3.7806949e-05,6.59388274e-05
-3.8,8.25855732e-07,6.47087183e-06,1.34994116e-05,2.28262531e-05,3.68631171e-05,6.31582488e-05
-3.85,8.27197796e-07,6.43206138e-06,1.3360373e-05,2.24711823e-05,3.59818113e-05,6.06396858e-05
-3.9,8.28561528e-07,6.39451593e-06,1.32266677e-05,2.21332456e-05,3.5157119e-05,5.83500948e-05
-3.95,8.29946181e-07,6.35817916e-06,1.30980023e-05,2.18112496e-05,3.43838404e-05,5.62612836e-05
-4.0,8.31351047e-07,6.3229981e-06,1.29741042e-05,2.15041083e-05,3.36573857e-05,5.4349178e-05
-4.05,8.3277546e-07,6.28892289e-06,1.28547204e-05,2.12108322e-05,3.29736892e-05,5.25931772e-05
-4.1,8.34218788e-07,6.25590658e-06,1.27396154e-05,2.09305171e-05,3.2329138e-05,5.09756029e-05
-4.15,8.35680433e-07,6.22390491e-06,1.26285699e-05,2.06623356e-05,3.1720511e-05,4.94812351e-05
-4.2,8.3715983e-07,6.19287611e-06,1.25213792e-05,2.04055291e-05,3.11449279e-05,4.80969232e-05
-4.25,8.38656445e-07,6.1627808e-06,1.24178523e-05,2.01594006e-05,3.05998059e-05,4.68112637e-05
-4.3,8.40169773e-07,6.13358175e-06,1.23178106e-05,1.99233088e-05,3.00828223e-05,4.56143308e-05
-4.35,8.41699337e-07,6.10524381e-06,1.22210872e-05,1.96966626e-05,2.95918828e-05,4.44974535e-05
-4.4,8.43244685e-07,6.07773372e-06,1.21275255e-05,1.94789161e-05,2.91250946e-05,4.34530293e-05
-4.45,8.4480539e-07,6.05102005e-06,1.20369789e-05,1.9269565e-05,2.8680743e-05,4.24743693e-05
-4.5,8.46381049e-07,6.02507302e-06,1.19493098e-05,1.90681418e-05,2.82572703e-05,4.15555682e-05
-4.55,8.47971281e-07,5.99986447e-06,1.18643888e-05,1.88742135e-05,2.78532595e-05,4.06913954e-05
-4.6,8.49575726e-07,5.97536768e-06,1.17820947e-05,1.86873778e-05,2.74674178e-05,3.98772029e-05
-4.65,8.51194044e-07,5.95155737e-06,1.17023131e-05,1.85072607e-05,2.7098564e-05,3.91088484e-05
-4.7,8.52825914e-07,5.92840954e-06,1.16249366e-05,1.8333514e-05,2.67456165e-05,3.83826287e-05
-4.75,8.54471032e-07,5.90590146e-06,1.15498638e-05,1.81658135e-05,2.64075834e-05,3.76952244e-05
-4.8,8.56129114e-07,5.88401152e-06,1.14769993e-05,1.80038564e-05,2.60835529e-05,3.70436522e-05
-4.85,8.57799889e-07,5.86271924e-06,1.14062531e-05,1.78473599e-05,2.57726859e-05,3.64252232e-05
-4.9,8.59483104e-07,5.84200518e-06,1.13375402e-05,1.76960598e-05,2.54742088e-05,3.58375088e-05
-4.95,8.61178518e-07,5.82185084e-06,1.12707804e-05,1.75497087e-05,2.51874072e-05,3.52783096e-05
-5.0,8.62885908e-07,5.80223867e-06,1.12058979e-05,1.74080748e-05,2.49116203e-05,3.47456296e-05
-5.05,8.6460506e-07,5.78315198e-06,1.1142821e-05,1.72709408e-05,2.46462362e-05,3.42376531e-05
-5.1,8.66335775e-07,5.7645749e-06,1.10814821e-05,1.71381027e-05,2.43906875e-05,3.37527254e-05
-5.15,8.68077866e-07,5.74649235e-06,1.10218169e-05,1.7009369e-05,2.41444471e-05,3.32893353e-05
-5.2,8.69831156e-07,5.72888997e-06,1.09637649e-05,1.68845598e-05,2.39070251e-05,3.28460998e-05
-5.25,8.7159548e-07,5.71175409e-06,1.09072686e-05,1.67635056e-05,2.36779653e-05,3.24217512e-05
-5.3,8.73370682e-07,5.6950717e-06,1.08522735e-05,1.6646047e-05,2.34568424e-05,3.20151251e-05
-5.35,8.75156619e-07,5.67883043e-06,1.0798728e-05,1.65320339e-05,2.32432598e-05,3.16251505e-05
-5.4,8.76953152e-07,5.66301846e-06,1.07465833e-05,1.64213248e-05,2.30368468e-05,3.12508406e-05
-5.45,8.78760156e-07,5.64762457e-06,1.0695793e-05,1.63137861e-05,2.28372569e-05,3.08912844e-05
-5.5,8.80577511e-07,5.63263804e-06,1.0646313e-05,1.62092921e-05,2.26441659e-05,3.05456402e-05
-5.55,8.82405107e-07,5.61804864e-06,1.05981015e-05,1.61077237e-05,2.24572698e-05,3.02131286e-05
-5.6,8.84242839e-07,5.60384664e-06,1.05511191e-05,1.60089687e-05,2.22762838e-05,2.98930274e-05
-5.65,8.86090612e-07,5.59002273e-06,1.05053279e-05,1.59129209e-05,2.21009406e-05,2.95846662e-05
-5.7,8.87948336e-07,5.57656805e-06,1.04606922e-05,1.58194799e-05,2.19309891e-05,2.92874219e-05
-5.75,8.89815928e-07,5.56347413e-06,1.04171781e-05,1.5728551e-05,2.17661933e-05,2.90007148e-05
-5.8,8.91693311e-07,5.55073286e-06,1.03747532e-05,1.56400441e-05,2.16063313e-05,2.87240048e-05
-5.85,8.93580413e-07,5.53833652e-06,1.03333868e-05,1.55538745e-05,2.14511942e-05,2.84567883e-05
-5.9,8.95477169e-07,5.52627772e-06,1.02930497e-05,1.54699614e-05,2.13005852e-05,2.81985949e-05
-5.95,8.97383518e-07,5.51454938e-06,1.0253714e-05,1.53882287e-05,2.11543189e-05,2.79489852e-05
-6.0,8.99299404e-07,5.50314476e-06,1.02153535e-05,1.53086041e-05,2.10122206e-05,2.77075481e-05
-6.05,9.01224777e-07,5.49205737e-06,1.01779427e-05,1.52310191e-05,2.08741254e-05,2.74738984e-05
-6.1,9.03159589e-07,5.48128101e-06,1.01414579e-05,1.51554088e-05,2.07398775e-05,2.72476754e-05
-6.15,9.05103797e-07,5.47080975e-06,1.0105876e-05,1.50817115e-05,2.06093301e-05,2.70285407e-05
-6.2,9.07057363e-07,5.46063791e-06,1.00711754e-05,1.50098687e-05,2.04823442e-05,2.68161765e-05
-6.25,9.09020253e-07,5.45076001e-06,1.00373353e-05,1.49398251e-05,2.03587887e-05,2.66102842e-05
-6.3,9.10992433e-07,5.44117082e-06,1.00043358e-05,1.4871528e-05,2.02385393e-05,2.64105834e-05
-6.35,9.12973877e-07,5.43186532e-06,9.97215816e-06,1.48049273e-05,2.01214789e-05,2.62168099e-05
-6.4,9.14964558e-07,5.42283867e-06,9.94078423e-06,1.47399756e-05,2.00074963e-05,2.60287153e-05
-6.45,9.16964454e-07,5.41408622e-06,9.91019683e-06,1.46766277e-05,1.98964864e-05,2.58460654e-05
-6.5,9.18973546e-07,5.40560352e-06,9.88037951e-06,1.46148407e-05,1.97883497e-05,2.56686397e-05
-6.55,9.20991816e-07,5.39738626e-06,9.85131652e-06,1.4554574e-05,1.9682992e-05,2.54962301e-05
-6.6,9.2301925e-07,5.3894303e-06,9.82299285e-06,1.44957886e-05,1.9580324e-05,2.53286404e-05
