vds,vb1,vb2,vb3,vb4,vb5,vb6
0.0,3.67653425e-06,1.85397368e-05,3.01153934e-05,4.01630724e-05,4.86553721e-05,5.61899447e-05
-0.05,2.78631681e-06,1.75040361e-05,2.91093955e-05,3.91992477e-05,4.77376919e-05,5.53163671e-05
-0.1,1.92461306e-06,1.64801896e-05,2.81127435e-05,3.82429519e-05,4.68261756e-05,5.44479167e-05
-0.15,1.12958448e-06,1.54680843e-05,2.71253517e-05,3.72941277e-05,4.59207839e-05,5.35845653e-05
-0.2,5.23486373e-07,1.44676206e-05,2.61471361e-05,3.63527183e-05,4.50214775e-05,5.27262849e-05
-0.25,2.32248328e-07,1.34787192e-05,2.51780138e-05,3.5418667e-05,4.41282171e-05,5.18730478e-05
-0.3,1.4088747e-07,1.25013304e-05,2.42179039e-05,3.44919179e-05,4.3240964e-05,5.10248259e-05
-0.35,1.11817001e-07,1.15354509e-05,2.32667275e-05,3.35724154e-05,4.23596792e-05,5.01815917e-05
-0.4,9.97544477e-08,1.05811515e-05,2.23244079e-05,3.26601044e-05,4.14843243e-05,4.93433174e-05
-0.45,9.31709478e-08,9.63862652e-06,2.13908718e-05,3.17549304e-05,4.06148609e-05,4.85099756e-05
-0.5,8.87698767e-08,8.70828343e-06,2.04660493e-05,3.08568395e-05,3.97512509e-05,4.76815386e-05
-0.55,8.54243435e-08,7.79091265e-06,1.95498756e-05,2.99657786e-05,3.88934561e-05,4.68579792e-05
-0.6,8.26803471e-08,6.88801989e-06,1.8642292e-05,2.90816952e-05,3.80414391e-05,4.603927e-05
-0.65,8.03270132e-08,6.00249542e-06,1.7743248e-05,2.82045379e-05,3.71951622e-05,4.52253839e-05
-0.7,7.82535359e-08,5.13997464e-06,1.68527045e-05,2.73342562e-05,3.63545885e-05,4.44162937e-05
-0.75,7.63951332e-08,4.3114997e-06,1.59706375e-05,2.64708008e-05,3.55196809e-05,4.36119726e-05
-0.8,7.47103366e-08,3.537949e-06,1.50970449e-05,2.56141241e-05,3.46904032e-05,4.28123937e-05
-0.85,7.3170538e-08,2.8540092e-06,1.42319554e-05,2.476418e-05,3.38667191e-05,4.20175303e-05
-0.9,7.17547843e-08,2.30159577e-06,1.33754434e-05,2.39209246e-05,3.3048593e-05,4.12273558e-05
-0.95,7.04469938e-08,1.9031119e-06,1.25276515e-05,2.30843164e-05,3.22359898e-05,4.0441844e-05
-1.0,6.92343723e-08,1.63968215e-06,1.16888274e-05,2.22543172e-05,3.14288748e-05,3.96609686e-05
-1.05,6.81064571e-08,1.46826346e-06,1.08593838e-05,2.14308926e-05,3.06272143e-05,3.88847037e-05
-1.1,6.70545097e-08,1.35091192e-06,1.00399995e-05,2.06140132e-05,2.98309748e-05,3.81130235e-05
-1.15,6.60711109e-08,1.26419337e-06,9.23179077e-06,1.98036559e-05,2.9040124e-05,3.73459026e-05
-1.2,6.51498806e-08,1.19553093e-06,8.43660714e-06,1.89998061e-05,2.82546304e-05,3.65833157e-05
-1.25,6.42852754e-08,1.13833546e-06,7.65753772e-06,1.82024598e-05,2.74744636e-05,3.58252379e-05
-1.3,6.34724379e-08,1.08902941e-06,6.89974767e-06,1.7411628e-05,2.66995946e-05,3.50716447e-05
-1.35,6.27070827e-08,1.04554444e-06,6.17172567e-06,1.66273418e-05,2.59299957e-05,3.43225118e-05
-1.4,6.19854066e-08,1.0065963e-06,5.48668762e-06,1.58496601e-05,2.51656413e-05,3.35778154e-05
-1.45,6.13040168e-08,9.7133058e-07,4.86287296e-06,1.50786809e-05,2.44065076e-05,3.28375322e-05
-1.5,6.0659874e-08,9.39143075e-07,4.32012455e-06,1.43145584e-05,2.36525737e-05,3.21016394e-05
-1.55,6.00502443e-08,9.09584351e-07,3.8715123e-06,1.35575288e-05,2.2903822e-05,3.13701147e-05
-1.6,5.94726603e-08,8.82306296e-07,3.51548632e-06,1.2807949e-05,2.21602387e-05,3.06429365e-05
-1.65,5.89248881e-08,8.57030642e-07,3.2370536e-06,1.20663583e-05,2.14218151e-05,2.99200838e-05
-1.7,5.8404899e-08,8.33529447e-07,3.01653659e-06,1.13335735e-05,2.06885491e-05,2.92015367e-05
-1.75,5.79108462e-08,8.11612417e-07,2.83692548e-06,1.06108397e-05,1.99604468e-05,2.84872761e-05
-1.8,5.74410442e-08,7.91118305e-07,2.6861276e-06,9.90006291e-06,1.92375248e-05,2.77772839e-05
-1.85,5.69939513e-08,7.71908844e-07,2.55622263e-06,9.20415987e-06,1.85198143e-05,2.70715435e-05
-1.9,5.6568154e-08,7.53864323e-07,2.4420972e-06,8.52753985e-06,1.78073648e-05,2.63700398e-05
-1.95,5.61623542e-08,7.36880275e-07,2.34037249e-06,7.87665122e-06,1.71002516e-05,2.56727595e-05
-2.0,5.5775357e-08,7.20864915e-07,2.24872375e-06,7.26030209e-06,1.63985844e-05,2.49796915e-05
-2.05,5.54060612e-08,7.05737142e-07,2.16547857e-06,6.68911388e-06,1.57025211e-05,2.42908275e-05
-2.1,5.50534495e-08,6.91424932e-07,2.08938295e-06,6.17338311e-06,1.50122863e-05,2.36061622e-05
-2.15,5.47165812e-08,6.7786404e-07,2.01946279e-06,5.71962648e-06,1.43282001e-05,2.29256945e-05
-2.2,5.43945845e-08,6.64996935e-07,1.95493941e-06,5.32793684e-06,1.36507184e-05,2.22494281e-05
-2.25,5.40866509e-08,6.52771912e-07,1.89517602e-06,4.99238889e-06,1.29804937e-05,2.15773731e-05
-2.3,5.3792029e-08,6.41142351e-07,1.83964241e-06,4.70398784e-06,1.23184636e-05,2.09095474e-05
-2.35,5.35100199e-08,6.30066093e-07,1.78789075e-06,4.45366191e-06,1.16659774e-05,2.02459787e-05
-2.4,5.32399726e-08,6.19504901e-07,1.73953844e-06,4.23380471e-06,1.10249706e-05,1.95867079e-05
-2.45,5.29812797e-08,6.09424016e-07,1.69425553e-06,4.03855547e-06,1.03981849e-05,1.89317924e-05
-2.5,5.27333741e-08,5.99791754e-07,1.65175523e-06,3.86351921e-06,9.78939554e-06,1.82813116e-05
-2.55,5.24957259e-08,5.90579175e-07,1.6117866e-06,3.70538528e-06,9.20353631e-06,1.76353741e-05
-2.6,5.22678387e-08,5.81759787e-07,1.5741288e-06,3.56161192e-06,8.64651026e-06,1.69941268e-05
-2.65,5.20492478e-08,5.73309288e-07,1.53858653e-06,3.43020189e-06,8.12445079e-06,1.63577693e-05
-2.7,5.18395172e-08,5.65205347e-07,1.50498626e-06,3.30955061e-06,7.6424343e-06,1.57265715e-05
-2.75,5.16382377e-08,5.57427401e-07,1.47317322e-06,3.198344e-06,7.20316036e-06,1.51009003e-05
-2.8,5.14450247e-08,5.49956486e-07,1.44300884e-06,3.09548868e-06,6.80639538e-06,1.44812546e-05
-2.85,5.12595165e-08,5.42775083e-07,1.41436867e-06,3.00006304e-06,6.4494893e-06,1.38683143e-05
-2.9,5.10813726e-08,5.35866981e-07,1.38714053e-06,2.91128197e-06,6.12847859e-06,1.3263005e-05
-2.95,5.09102724e-08,5.2921716e-07,1.36122309e-06,2.82847076e-06,5.8390823e-06,1.26665794e-05
-3.0,5.07459133e-08,5.22811678e-07,1.33652453e-06,2.75104523e-06,5.57728093e-06,1.20807118e-05
-3.05,5.05880099e-08,5.1663758e-07,1.31296142e-06,2.6784964e-06,5.33953673e-06,1.15075872e-05
-3.1,5.04362928e-08,5.10682811e-07,1.29045783e-06,2.61037829e-06,5.12281868e-06,1.09499464e-05
-3.15,5.02905073e-08,5.04936137e-07,1.26894445e-06,2.54629824e-06,4.92455126e-06,1.04110259e-05
-3.2,5.01504124e-08,4.99387081e-07,1.24835789e-06,2.48590897e-06,4.74254568e-06,9.89432976e-06
-3.25,5.00157803e-08,4.94025853e-07,1.22864008e-06,2.42890211e-06,4.57493526e-06,9.40322186e-06
-3.3,4.98863952e-08,4.88843303e-07,1.2097377e-06,2.37500283e-06,4.42012066e-06,8.94044076e-06
-3.35,4.97620525e-08,4.83830863e-07,1.19160171e-06,2.32396534e-06,4.27672504e-06,8.50771693e-06
-3.4,4.96425585e-08,4.78980504e-07,1.17418691e-06,2.27556913e-06,4.14355763e-06,8.10563335e-06
-3.45,4.95277292e-08,4.74284696e-07,1.15745161e-06,2.22961581e-06,4.01958403e-06,7.73373066e-06
-3.5,4.94173901e-08,4.69736366e-07,1.14135726e-06,2.18592635e-06,3.90390193e-06,7.39075464e-06
-3.55,4.93113756e-08,4.65328869e-07,1.12586816e-06,2.14433878e-06,3.79572113e-06,7.07493552e-06
-3.6,4.92095282e-08,4.61055951e-07,1.11095122e-06,2.10470621e-06,3.69434702e-06,6.78423219e-06
-3.65,4.91116982e-08,4.56911727e-07,1.09657573e-06,2.06689511e-06,3.5991668e-06,6.51651654e-06
-3.7,4.90177434e-08,4.52890649e-07,1.08271311e-06,2.03078382e-06,3.50963804e-06,6.26969778e-06
-3.75,4.89275285e-08,4.48987484e-07,1.06933677e-06,1.99626126e-06,3.42527896e-06,6.04179732e-06
-3.8,4.88409245e-08,4.45197295e-07,1.05642192e-06,1.9632258e-06,3.34566038e-06,5.83098769e-06
-3.85,4.8757809e-08,4.41515417e-07,1.04394544e-06,1.93158427e-06,3.27039879e-06,5.6356074e-06
-3.9,4.86780651e-08,4.37937441e-07,1.03188571e-06,1.90125113e-06,3.19915053e-06,5.45416105e-06
-3.95,4.86015815e-08,4.34459196e-07,1.02022252e-06,1.87214767e-06,3.13160681e-06,5.28531103e-06
-4.0,4.85282521e-08,4.31076734e-07,1.00893692e-06,1.84420134e-06,3.06748942e-06,5.12786512e-06
-4.05,4.8457976e-08,4.27786318e-07,9.98011189e-07,1.81734521e-06,3.0065471e-06,4.9807625e-06
-4.1,4.83906565e-08,4.24584402e-07,9.87428665e-07,1.79151736e-06,2.94855238e-06,4.8430596e-06
-4.15,4.83262018e-08,4.21467626e-07,9.77173715e-07,1.76666049e-06,2.89329884e-06,4.7139168e-06
-4.2,4.8264524e-08,4.18432802e-07,9.67231638e-07,1.74272147e-06,2.84059876e-06,4.59258613e-06
-4.25,4.82055393e-08,4.15476902e-07,9.57588603e-07,1.71965094e-06,2.79028107e-06,4.47840029e-06
-4.3,4.81491678e-08,4.12597052e-07,9.48231586e-07,1.69740303e-06,2.74218954e-06,4.37076283e-06
-4.35,4.80953331e-08,4.09790517e-07,9.3914831e-07,1.67593505e-06,2.69618124e-06,4.26913964e-06
-4.4,4.80439621e-08,4.07054699e-07,9.30327195e-07,1.65520718e-06,2.65212513e-06,4.17305143e-06
-4.45,4.79949851e-08,4.04387128e-07,9.21757313e-07,1.63518227e-06,2.60990089e-06,4.08206717e-06
-4.5,4.79483355e-08,4.01785449e-07,9.13428335e-07,1.61582561e-06,2.56939783e-06,3.99579842e-06
-4.55,4.79039495e-08,3.99247424e-07,9.05330502e-07,1.59710474e-06,2.53051396e-06,3.91389435e-06
-4.6,4.78617662e-08,3.96770918e-07,8.9745458e-07,1.57898927e-06,2.49315514e-06,3.83603745e-06
-4.65,4.78217274e-08,3.94353898e-07,8.89791827e-07,1.56145071e-06,2.45723438e-06,3.76193976e-06
-4.7,4.77837772e-08,3.91994427e-07,8.82333964e-07,1.54446232e-06,2.42267112e-06,3.69133959e-06
-4.75,4.77478624e-08,3.89690655e-07,8.75073146e-07,1.527999e-06,2.3893907e-06,3.62399864e-06
-4.8,4.77139319e-08,3.87440819e-07,8.6800193e-07,1.51203715e-06,2.35732383e-06,3.5596995e-06
-4.85,4.76819368e-08,3.85243235e-07,8.61113258e-07,1.49655458e-06,2.32640606e-06,3.49824347e-06
-4.9,4.76518304e-08,3.83096298e-07,8.54400426e-07,1.48153037e-06,2.29657744e-06,3.43944855e-06
-4.95,4.76235678e-08,3.80998471e-07,8.4785707e-07,1.46694483e-06,2.26778209e-06,3.38314785e-06
-5.0,4.75971062e-08,3.7894829e-07,8.41477139e-07,1.45277939e-06,2.23996789e-06,3.32918797e-06
-5.05,4.75724043e-08,3.76944352e-07,8.35254882e-07,1.43901649e-06,2.21308613e-06,3.27742775e-06
-5.1,4.75494228e-08,3.74985317e-07,8.2918483e-07,1.42563958e-06,2.18709129e-06,3.22773705e-06
-5.15,4.75281239e-08,3.73069905e-07,8.23261776e-07,1.412633e-06,2.16194075e-06,3.17999571e-06
-5.2,4.75084714e-08,3.71196889e-07,8.17480766e-07,1.39998194e-06,2.13759456e-06,3.13409265e-06
-5.25,4.74904305e-08,3.69365098e-07,8.1183708e-07,1.38767239e-06,2.11401528e-06,3.08992499e-06
-5.3,4.7473968e-08,3.67573407e-07,8.06326222e-07,1.37569107e-06,2.09116771e-06,3.04739733e-06
-5.35,4.74590518e-08,3.65820741e-07,8.00943907e-07,1.36402541e-06,2.06901882e-06,3.00642113e-06
-5.4,4.74456513e-08,3.64106071e-07,7.9568605e-07,1.35266349e-06,2.04753751e-06,2.96691402e-06
-5.45,4.7433737e-08,3.62428409e-07,7.90548753e-07,1.34159399e-06,2.02669453e-06,2.92879936e-06
-5.5,4.74232807e-08,3.6078681e-07,7.85528299e-07,1.33080617e-06,2.00646229e-06,2.89200572e-06
-5.55,4.74142551e-08,3.59180367e-07,7.80621139e-07,1.32028985e-06,1.9868148e-06,2.85646644e-06
-5.6,4.74066342e-08,3.57608209e-07,7.75823885e-07,1.31003533e-06,1.96772753e-06,2.82211925e-06
-5.65,4.74003928e-08,3.56069501e-07,7.71133302e-07,1.30003342e-06,1.94917731e-06,2.78890592e-06
-5.7,4.7395507e-08,3.54563443e-07,7.66546298e-07,1.29027536e-06,1.93114226e-06,2.75677195e-06
-5.75,4.73919534e-08,3.53089265e-07,7.62059919e-07,1.28075282e-06,1.91360167e-06,2.72566623e-06
-5.8,4.73897098e-08,3.51646229e-07,7.5767134e-07,1.27145788e-06,1.89653596e-06,2.69554087e-06
-5.85,4.73887547e-08,3.50233624e-07,7.53377861e-07,1.26238301e-06,1.8799266e-06,2.66635087e-06
-5.9,4.73890675e-08,3.48850769e-07,7.49176898e-07,1.253521e-06,1.863756e-06,2.63805395e-06
-5.95,4.73906282e-08,3.47497006e-07,7.45065978e-07,1.24486503e-06,1.84800754e-06,2.61061035e-06
-6.0,4.73934177e-08,3.46171706e-07,7.41042735e-07,1.23640857e-06,1.83266542e-06,2.58398262e-06
-6.05,4.73974175e-08,3.4487426e-07,7.37104904e-07,1.2281454e-06,1.81771465e-06,2.5581355e-06
-6.1,4.74026098e-08,3.43604086e-07,7.33250313e-07,1.22006958e-06,1.80314103e-06,2.53303572e-06
-6.15,4.74089775e-08,3.42360618e-07,7.29476883e-07,1.21217548e-06,1.78893104e-06,2.50865192e-06
-6.2,4.74165039e-08,3.41143316e-07,7.25782621e-07,1.20445767e-06,1.77507186e-06,2.48495445e-06
-6.25,4.74251732e-08,3.39951656e-07,7.22165617e-07,1.19691102e-06,1.76155129e-06,2.46191532e-06
-6.3,4.74349698e-08,3.38785136e-07,7.18624036e-07,1.1895306e-06,1.74835772e-06,2.43950806e-06
-6.35,4.74458789e-08,3.37643267e-07,7.1515612e-07,1.18231171e-06,1.73548013e-06,2.41770761e-06
-6.4,4.7457886e-08,3.36525582e-07,7.11760182e-07,1.17524986e-06,1.72290802e-06,2.39649027e-06
-6.45,4.74709773e-08,3.35431628e-07,7.084346e-07,1.16834075e-06,1.71063139e-06,2.37583358e-06
-6.5,4.74851392e-08,3.34360966e-07,7.05177818e-07,1.1615803e-06,1.69864073e-06,2.35571624e-06
-6.55,4.75003588e-08,3.33313174e-07,7.01988339e-07,1.15496457e-06,1.68692696e-06,2.33611807e-06
-6.6,4.75166234e-08,3.32287844e-07,6.98864725e-07,1.14848981e-06,1.67548145e-06,2.31701993e-06
