vds,vb1,vb2,vb3,vb4,vb5,vb6
0.0,2.80951458e-06,2.62807684e-05,4.5995638e-05,6.23694471e-05,7.60770822e-05,8.76372784e-05
-0.05,1.53901895e-06,2.46256811e-05,4.44682195e-05,6.0972125e-05,7.47977041e-05,8.64629578e-05
-0.1,5.20312803e-07,2.29717504e-05,4.29416049e-05,5.95754772e-05,7.35189073e-05,8.52891437e-05
-0.15,1.09754826e-07,2.13190759e-05,4.14157999e-05,5.81795048e-05,7.22406919e-05,8.41158359e-05
-0.2,2.89822962e-08,1.96678067e-05,3.98908121e-05,5.67842089e-05,7.09630582e-05,8.29430344e-05
-0.25,1.15540111e-08,1.80181716e-05,3.83666507e-05,5.53895906e-05,6.96860062e-05,8.1770739e-05
-0.3,6.26774019e-09,1.63705322e-05,3.68433272e-05,5.39956517e-05,6.84095363e-05,8.05989497e-05
-0.35,4.17898843e-09,1.47254789e-05,3.53208565e-05,5.26023939e-05,6.71336486e-05,7.94276664e-05
-0.4,3.183459e-09,1.30840122e-05,3.37992571e-05,5.12098196e-05,6.58583436e-05,7.82568892e-05
-0.45,2.63921858e-09,1.14478979e-05,3.22785529e-05,4.98179314e-05,6.45836218e-05,7.70866181e-05
-0.5,2.30905094e-09,9.82039467e-06,3.07587748e-05,4.84267326e-05,6.33094836e-05,7.5916853e-05
-0.55,2.09183158e-09,8.2077926e-06,2.9239963e-05,4.70362269e-05,6.20359299e-05,7.47475941e-05
-0.6,1.93944161e-09,6.62272638e-06,2.77221704e-05,4.56464189e-05,6.07629614e-05,7.35788414e-05
-0.65,1.82689648e-09,5.09106557e-06,2.62054677e-05,4.42573141e-05,5.9490579e-05,7.24105952e-05
-0.7,1.74026766e-09,3.66400909e-06,2.46899505e-05,4.2868919e-05,5.82187839e-05,7.12428555e-05
-0.75,1.67131665e-09,2.42869941e-06,2.31757494e-05,4.14812416e-05,5.69475773e-05,7.00756227e-05
-0.8,1.61491998e-09,1.48597133e-06,2.16630466e-05,4.00942914e-05,5.56769608e-05,6.89088971e-05
-0.85,1.56775128e-09,8.74056e-07,2.01520996e-05,3.870808e-05,5.44069361e-05,6.77426789e-05
-0.9,1.52756875e-09,5.28277703e-07,1.864328e-05,3.73226214e-05,5.31375053e-05,6.65769686e-05
-0.95,1.4928114e-09,3.4528273e-07,1.71371348e-05,3.59379329e-05,5.18686708e-05,6.54117667e-05
-1.0,1.46236058e-09,2.47899982e-07,1.56344864e-05,3.45540359e-05,5.06004353e-05,6.42470738e-05
-1.05,1.43539401e-09,1.93604068e-07,1.41366009e-05,3.31709565e-05,4.93328021e-05,6.30828906e-05
-1.1,1.41129347e-09,1.61393469e-07,1.26454742e-05,3.17887278e-05,4.8065775e-05,6.19192177e-05
-1.15,1.38958473e-09,1.41031274e-07,1.11643287e-05,3.04073911e-05,4.67993582e-05,6.07560561e-05
-1.2,1.36989742e-09,1.27377856e-07,9.69847957e-06,2.9026999e-05,4.5533557e-05,5.95934067e-05
-1.25,1.35193761e-09,1.1773294e-07,8.25683013e-06,2.76476185e-05,4.42683773e-05,5.84312708e-05
-1.3,1.33546868e-09,1.10606493e-07,6.85432622e-06,2.62693364e-05,4.30038261e-05,5.72696497e-05
-1.35,1.32029762e-09,1.05136148e-07,5.51548095e-06,2.48922659e-05,4.17399118e-05,5.61085448e-05
-1.4,1.3062652e-09,1.00800156e-07,4.27780519e-06,2.35165566e-05,4.04766442e-05,5.49479579e-05
-1.45,1.29323862e-09,9.72697917e-08,3.19074048e-06,2.21424082e-05,3.92140348e-05,5.3787891e-05
-1.5,1.28110613e-09,9.43301973e-08,2.30289233e-06,2.07700909e-05,3.79520974e-05,5.26283462e-05
-1.55,1.2697728e-09,9.18362037e-08,1.63803866e-06,1.9399976e-05,3.66908486e-05,5.14693261e-05
-1.6,1.25915743e-09,8.96867511e-08,1.17953437e-06,1.803258e-05,3.54303083e-05,5.03108337e-05
-1.65,1.24919003e-09,8.78095639e-08,8.81162676e-07,1.66686339e-05,3.41705003e-05,4.91528722e-05
-1.7,1.23980985e-09,8.61516806e-08,6.91747574e-07,1.53091882e-05,3.29114538e-05,4.79954455e-05
-1.75,1.23096393e-09,8.46734328e-08,5.7094053e-07,1.3955777e-05,3.16532043e-05,4.68385579e-05
-1.8,1.22260574e-09,8.33445151e-08,4.91993301e-07,1.26106766e-05,3.03957954e-05,4.56822145e-05
-1.85,1.2146943e-09,8.21413586e-08,4.38583221e-07,1.12773118e-05,2.91392811e-05,4.4526421e-05
-1.9,1.20719324e-09,8.10453361e-08,4.01040733e-07,9.96088884e-06,2.78837288e-05,4.33711841e-05
-1.95,1.20007025e-09,8.00415104e-08,3.73635146e-07,8.6693511e-06,2.66292231e-05,4.22165115e-05
-2.0,1.19329644e-09,7.91177447e-08,3.52913729e-07,7.41471873e-06,2.53758711e-05,4.10624121e-05
-2.05,1.18684589e-09,7.82640597e-08,3.36744892e-07,6.21467809e-06,2.41238097e-05,3.99088963e-05
-2.1,1.18069531e-09,7.74721612e-08,3.23775732e-07,5.09373521e-06,2.28732158e-05,3.87559763e-05
-2.15,1.17482364e-09,7.6735088e-08,3.13122748e-07,4.08227554e-06,2.16243195e-05,3.76036663e-05
-2.2,1.16921182e-09,7.60469456e-08,3.04192633e-07,3.21127745e-06,2.03774244e-05,3.64519829e-05
-2.25,1.16384257e-09,7.54027022e-08,2.96576171e-07,2.50239416e-06,1.91329344e-05,3.5300946e-05
-2.3,1.15870012e-09,7.47980306e-08,2.89983942e-07,1.95838645e-06,1.78913938e-05,3.41505789e-05
-2.35,1.1537701e-09,7.42291847e-08,2.84206406e-07,1.5615999e-06,1.66535452e-05,3.30009094e-05
-2.4,1.14903936e-09,7.36929009e-08,2.79088543e-07,1.28197589e-06,1.54204128e-05,3.18519711e-05
-2.45,1.14449582e-09,7.31863205e-08,2.74513359e-07,1.08780498e-06,1.41934274e-05,3.07038041e-05
-2.5,1.14012842e-09,7.27069258e-08,2.70390933e-07,9.52587504e-07,1.29746083e-05,2.95564569e-05
-2.55,1.13592694e-09,7.22524891e-08,2.66650986e-07,8.56932621e-07,1.17668331e-05,2.84099889e-05
-2.6,1.13188198e-09,7.18210304e-08,2.63237751e-07,7.87655148e-07,1.05742259e-05,2.72644725e-05
-2.65,1.12798483e-09,7.14107828e-08,2.60106354e-07,7.36100527e-07,9.40270258e-06,2.61199973e-05
-2.7,1.12422746e-09,7.10201631e-08,2.57220227e-07,6.9665116e-07,8.26068237e-06,2.49766744e-05
-2.75,1.12060238e-09,7.06477484e-08,2.54549229e-07,6.65647389e-07,7.15989636e-06,2.38346432e-05
-2.8,1.11710269e-09,7.02922547e-08,2.52068247e-07,6.40675334e-07,6.1160247e-06,2.2694079e-05
-2.85,1.11372192e-09,6.99525206e-08,2.49756166e-07,6.20115042e-07,5.14856351e-06,2.15552054e-05
-2.9,1.11045408e-09,6.9627492e-08,2.47595069e-07,6.02857664e-07,4.27902178e-06,2.04183089e-05
-2.95,1.10729357e-09,6.93162098e-08,2.45569635e-07,5.88128288e-07,3.52681877e-06,1.92837607e-05
-3.0,1.10423518e-09,6.90177992e-08,2.4366667e-07,5.75374005e-07,2.90369115e-06,1.81520456e-05
-3.05,1.101274e-09,6.87314601e-08,2.41874731e-07,5.64192233e-07,2.40940133e-06,1.70238034e-05
-3.1,1.09840548e-09,6.84564593e-08,2.40183835e-07,5.54284105e-07,2.03168572e-06,1.58998859e-05
-3.15,1.09562534e-09,6.81921234e-08,2.38585225e-07,5.45423644e-07,1.7505483e-06,1.47814382e-05
-3.2,1.09292955e-09,6.79378325e-08,2.37071179e-07,5.37437023e-07,1.54400449e-06,1.36700116e-05
-3.25,1.09031434e-09,6.76930152e-08,2.35634855e-07,5.3018838e-07,1.39232409e-06,1.2567724e-05
-3.3,1.08777618e-09,6.74571436e-08,2.34270164e-07,5.23569939e-07,1.27985155e-06,1.147748e-05
-3.35,1.08531172e-09,6.72297292e-08,2.32971666e-07,5.17495033e-07,1.19506094e-06,1.04032692e-05
-3.4,1.08291784e-09,6.70103191e-08,2.3173448e-07,5.11893089e-07,1.12982021e-06,9.35054911e-06
-3.45,1.08059158e-09,6.6798493e-08,2.30554214e-07,5.06705975e-07,1.07850871e-06,8.32669469e-06
-3.5,1.07833013e-09,6.65938601e-08,2.29426904e-07,5.018853e-07,1.03726445e-06,7.3414328e-06
-3.55,1.07613089e-09,6.63960565e-08,2.28348955e-07,4.97390394e-07,1.00342396e-06,6.40706681e-06
-3.6,1.07399135e-09,6.62047431e-08,2.27317106e-07,4.93186771e-07,9.75132317e-07,5.53814502e-06
-3.65,1.07190918e-09,6.60196032e-08,2.26328383e-07,4.89244956e-07,9.51080115e-07,4.75014421e-06
-3.7,1.06988214e-09,6.5840341e-08,2.25380073e-07,4.85539564e-07,9.30328569e-07,4.05694958e-06
-3.75,1.06790814e-09,6.56666794e-08,2.24469691e-07,4.82048594e-07,9.12193353e-07,3.46759447e-06
-3.8,1.06598518e-09,6.54983591e-08,2.2359496e-07,4.7875285e-07,8.9616715e-07,2.98358746e-06
-3.85,1.06411138e-09,6.53351369e-08,2.22753784e-07,4.75635494e-07,8.81867556e-07,2.59831832e-06
-3.9,1.06228494e-09,6.51767843e-08,2.21944235e-07,4.72681677e-07,8.69001633e-07,2.29895396e-06
-3.95,1.06050418e-09,6.50230869e-08,2.2116453e-07,4.69878239e-07,8.57341497e-07,2.06973981e-06
-4.0,1.05876746e-09,6.48738428e-08,2.20413025e-07,4.67213468e-07,8.46707265e-07,1.89509017e-06
-4.05,1.05707327e-09,6.4728862e-08,2.19688194e-07,4.64676897e-07,8.36954999e-07,1.76149912e-06
-4.1,1.05542015e-09,6.45879655e-08,2.18988624e-07,4.62259132e-07,8.2796805e-07,1.65822355e-06
-4.15,1.0538067e-09,6.44509846e-08,2.18313002e-07,4.59951719e-07,8.1965076e-07,1.57716895e-06
-4.2,1.05223163e-09,6.431776e-08,2.17660104e-07,4.57747018e-07,8.11923831e-07,1.51242844e-06
-4.25,1.05069367e-09,6.41881413e-08,2.17028793e-07,4.55638107e-07,8.04720868e-07,1.45976102e-06
-4.3,1.04919162e-09,6.40619862e-08,2.16418006e-07,4.53618696e-07,7.97985759e-07,1.41613754e-06
-4.35,1.04772436e-09,6.39391603e-08,2.15826751e-07,4.51683054e-07,7.9167069e-07,1.37938937e-06
-4.4,1.04629079e-09,6.38195364e-08,2.152541e-07,4.49825944e-07,7.85734594e-07,1.3479523e-06
-4.45,1.04488989e-09,6.37029939e-08,2.14699184e-07,4.48042571e-07,7.80141952e-07,1.32068592e-06
-4.5,1.04352066e-09,6.35894186e-08,2.1416119e-07,4.46328536e-07,7.74861843e-07,1.29674811e-06
-4.55,1.04218216e-09,6.34787022e-08,2.13639353e-07,4.44679792e-07,7.69867187e-07,1.27550833e-06
-4.6,1.0408735e-09,6.3370742e-08,2.13132956e-07,4.43092609e-07,7.65134136e-07,1.25648759e-06
-4.65,1.03959381e-09,6.32654405e-08,2.12641324e-07,4.41563545e-07,7.60641585e-07,1.23931677e-06
-4.7,1.03834228e-09,6.31627049e-08,2.12163822e-07,4.40089414e-07,7.56370768e-07,1.22370734e-06
-4.75,1.03711811e-09,6.30624473e-08,2.11699853e-07,4.38667267e-07,7.52304927e-07,1.20943068e-06
-4.8,1.03592056e-09,6.2964584e-08,2.11248852e-07,4.37294364e-07,7.48429036e-07,1.19630326e-06
-4.85,1.03474891e-09,6.28690353e-08,2.10810289e-07,4.35968163e-07,7.44729577e-07,1.18417595e-06
-4.9,1.03360246e-09,6.27757253e-08,2.10383661e-07,4.34686294e-07,7.41194341e-07,1.17292614e-06
-4.95,1.03248056e-09,6.2684582e-08,2.09968494e-07,4.33446549e-07,7.37812271e-07,1.16245199e-06
-5.0,1.03138257e-09,6.25955365e-08,2.09564339e-07,4.32246869e-07,7.34573321e-07,1.15266801e-06
-5.05,1.03030789e-09,6.25085234e-08,2.09170773e-07,4.31085328e-07,7.31468339e-07,1.14350182e-06
-5.1,1.02925594e-09,6.242348e-08,2.08787394e-07,4.29960126e-07,7.28488966e-07,1.13489163e-06
-5.15,1.02822615e-09,6.23403469e-08,2.0841382e-07,4.28869575e-07,7.25627548e-07,1.12678423e-06
-5.2,1.027218e-09,6.22590669e-08,2.08049693e-07,4.27812093e-07,7.22877061e-07,1.11913353e-06
-5.25,1.02623096e-09,6.21795859e-08,2.07694668e-07,4.26786196e-07,7.20231045e-07,1.11189931e-06
-5.3,1.02526455e-09,6.21018518e-08,2.07348422e-07,4.25790489e-07,7.17683548e-07,1.10504628e-06
-5.35,1.02431828e-09,6.20258151e-08,2.07010646e-07,4.2482366e-07,7.15229072e-07,1.0985433e-06
-5.4,1.0233917e-09,6.19514283e-08,2.06681048e-07,4.23884473e-07,7.12862533e-07,1.09236276e-06
-5.45,1.02248436e-09,6.1878646e-08,2.06359349e-07,4.22971766e-07,7.1057922e-07,1.08648004e-06
-5.5,1.02159585e-09,6.18074247e-08,2.06045283e-07,4.22084441e-07,7.08374761e-07,1.08087313e-06
-5.55,1.02072576e-09,6.1737723e-08,2.05738599e-07,4.21221463e-07,7.06245093e-07,1.07552227e-06
-5.6,1.01987368e-09,6.16695009e-08,2.05439057e-07,4.20381855e-07,7.04186431e-07,1.0704096e-06
-5.65,1.01903925e-09,6.16027202e-08,2.05146429e-07,4.19564691e-07,7.02195249e-07,1.06551901e-06
-5.7,1.01822209e-09,6.15373444e-08,2.04860496e-07,4.18769099e-07,7.00268255e-07,1.06083586e-06
-5.75,1.01742185e-09,6.14733384e-08,2.04581052e-07,4.17994251e-07,6.98402373e-07,1.05634682e-06
-5.8,1.01663819e-09,6.14106685e-08,2.04307897e-07,4.17239363e-07,6.96594724e-07,1.05203974e-06
-5.85,1.01587078e-09,6.13493024e-08,2.04040844e-07,4.16503695e-07,6.94842612e-07,1.04790349e-06
-5.9,1.01511931e-09,6.12892089e-08,2.03779711e-07,4.15786541e-07,6.93143506e-07,1.04392787e-06
-5.95,1.01438345e-09,6.12303584e-08,2.03524326e-07,4.15087234e-07,6.91495032e-07,1.0401035e-06
-6.0,1.01366293e-09,6.1172722e-08,2.03274526e-07,4.14405141e-07,6.8989496e-07,1.03642175e-06
-6.05,1.01295743e-09,6.11162721e-08,2.03030152e-07,4.13739659e-07,6.8834119e-07,1.03287463e-06
-6.1,1.0122667e-09,6.10609824e-08,2.02791054e-07,4.13090216e-07,6.86831746e-07,1.02945478e-06
-6.15,1.01159045e-09,6.10068271e-08,2.02557088e-07,4.12456269e-07,6.85364767e-07,1.02615536e-06
-6.2,1.01092842e-09,6.09537818e-08,2.02328116e-07,4.11837299e-07,6.83938495e-07,1.02297005e-06
-6.25,1.01028036e-09,6.09018226e-08,2.02104006e-07,4.11232816e-07,6.82551274e-07,1.01989295e-06
-6.3,1.00964602e-09,6.08509267e-08,2.01884633e-07,4.10642349e-07,6.81201539e-07,1.01691858e-06
-6.35,1.00902517e-09,6.08010721e-08,2.01669874e-07,4.10065452e-07,6.79887808e-07,1.01404184e-06
-6.4,1.00841756e-09,6.07522374e-08,2.01459615e-07,4.095017e-07,6.78608683e-07,1.01125794e-06
-6.45,1.00782297e-09,6.07044022e-08,2.01253742e-07,4.08950687e-07,6.77362839e-07,1.00856245e-06
-6.5,1.00724118e-09,6.06575467e-08,2.0105215e-07,4.08412025e-07,6.76149019e-07,1.00595119e-06
-6.55,1.00667198e-09,6.06116515e-08,2.00854736e-07,4.07885345e-07,6.74966036e-07,1.00342025e-06
-6.6,1.00611516e-09,6.05666983e-08,2.006614e-07,4.07370295e-07,6.73812761e-07,1.00096597e-06
