vds,vb1,vb2,vb3,vb4,vb5,vb6
0.0,9.24960572e-06,5.47699077e-05,8.78364746e-05,0.000115477407,0.0001371328,0.000156153952
-0.05,6.61175691e-06,5.16329222e-05,8.48419177e-05,0.000112642253,0.000134460807,0.000153625949
-0.1,4.09968256e-06,4.85324738e-05,8.18765267e-05,0.000109831081,0.000131808874,0.00015111505
-0.15,1.96908714e-06,4.54681892e-05,7.89399982e-05,0.00010704367,0.000129176837,0.00014862113
-0.2,7.56468979e-07,4.24397424e-05,7.60320342e-05,0.000104279804,0.000126564536,0.000146144064
-0.25,3.67856059e-07,3.94468756e-05,7.31523424e-05,0.000101539269,0.00012397181,0.00014368373
-0.3,2.59059024e-07,3.64894339e-05,7.03006366e-05,9.88218509e-05,0.000121398499,0.000141240003
-0.35,2.1904255e-07,3.35674231e-05,6.74766381e-05,9.61273405e-05,0.000118844447,0.000138812764
-0.4,1.98878032e-07,3.06811101e-05,6.46800763e-05,9.34555298e-05,0.000116309496,0.00013640189
-0.45,1.86107824e-07,2.78312021e-05,6.1910691e-05,9.08062136e-05,0.000113793493,0.000134007263
-0.5,1.76800483e-07,2.50191802e-05,5.9168234e-05,8.81791892e-05,0.000111296283,0.000131628762
-0.55,1.69439638e-07,2.22479424e-05,5.64524725e-05,8.5574257e-05,0.000108817713,0.000129266269
-0.6,1.63331799e-07,1.95230854e-05,5.37631931e-05,8.29912202e-05,0.000106357633,0.000126919667
-0.65,1.58111506e-07,1.68555261e-05,5.11002083e-05,8.04298857e-05,0.000103915894,0.000124588839
-0.7,1.53562612e-07,1.42668419e-05,4.84633646e-05,7.78900639e-05,0.000101492347,0.000122273669
-0.75,1.49545062e-07,1.17993984e-05,4.58525553e-05,7.53715694e-05,9.9086846e-05,0.000119974043
-0.8,1.45961494e-07,9.53108779e-06,4.326774e-05,7.28742216e-05,9.66992459e-05,0.000117689846
-0.85,1.4274052e-07,7.57998556e-06,4.07089726e-05,7.03978451e-05,9.43294039e-05,0.000115420965
-0.9,1.39827651e-07,6.05993913e-06,3.81764467e-05,6.79422709e-05,9.19771787e-05,0.000113167288
-0.95,1.37180008e-07,4.9902624e-06,3.56705663e-05,6.55073373e-05,8.9642431e-05,0.000110928704
-1.0,1.34763049e-07,4.27615828e-06,3.31920618e-05,6.30928916e-05,8.73250238e-05,0.000108705103
-1.05,1.32548433e-07,3.79161261e-06,3.07421807e-05,6.06987914e-05,8.50248221e-05,0.000106496376
-1.1,1.30512564e-07,3.44358748e-06,2.8323013e-05,5.83249082e-05,8.27416936e-05,0.000104302415
-1.15,1.28635559e-07,3.17776671e-06,2.5938049e-05,5.59711298e-05,8.04755084e-05,0.000102123114
-1.2,1.26900498e-07,2.96445903e-06,2.35931477e-05,5.36373656e-05,7.82261398e-05,9.99583656e-05
-1.25,1.25292859e-07,2.78709487e-06,2.12981947e-05,5.13235532e-05,7.59934642e-05,9.78080672e-05
-1.3,1.23800089e-07,2.63587933e-06,1.90697927e-05,4.90296676e-05,7.37773617e-05,9.56721154e-05
-1.35,1.22411264e-07,2.50462233e-06,1.69350494e-05,4.67557341e-05,7.15777166e-05,9.35504088e-05
-1.4,1.21116829e-07,2.38916026e-06,1.49350549e-05,4.45018478e-05,6.93944178e-05,9.14428473e-05
-1.45,1.19908378e-07,2.28654096e-06,1.31231905e-05,4.22682015e-05,6.72273598e-05,8.93493325e-05
-1.5,1.18778487e-07,2.1945804e-06,1.15511366e-05,4.00551281e-05,6.50764435e-05,8.72697675e-05
-1.55,1.17720569e-07,2.11160784e-06,1.02447361e-05,3.78631637e-05,6.29415776e-05,8.52040573e-05
-1.6,1.16728758e-07,2.03631111e-06,9.19015218e-06,3.56931469e-05,6.08226801e-05,8.31521088e-05
-1.65,1.15797811e-07,1.96763782e-06,8.3451436e-06,3.35463725e-05,5.87196802e-05,8.11138308e-05
-1.7,1.14923028e-07,1.90472968e-06,7.66128809e-06,3.14248348e-05,5.66325214e-05,7.90891344e-05
-1.75,1.14100179e-07,1.84687691e-06,7.09783746e-06,2.93316135e-05,5.45611648e-05,7.70779331e-05
-1.8,1.13325452e-07,1.79348575e-06,6.62476193e-06,2.72714774e-05,5.25055939e-05,7.50801432e-05
-1.85,1.12595396e-07,1.74405464e-06,6.22088623e-06,2.52517969e-05,5.04658215e-05,7.30956838e-05
-1.9,1.11906884e-07,1.69815624e-06,5.87126474e-06,2.32838073e-05,4.84418985e-05,7.11244774e-05
-1.95,1.11257073e-07,1.65542381e-06,5.5651308e-06,2.13840349e-05,4.64339259e-05,6.91664502e-05
-2.0,1.10643371e-07,1.61554049e-06,5.2945225e-06,1.95751107e-05,4.44420729e-05,6.7221533e-05
-2.05,1.10063416e-07,1.57823089e-06,5.05339966e-06,1.78843734e-05,4.24666006e-05,6.5289661e-05
-2.1,1.09515042e-07,1.54325445e-06,4.83707507e-06,1.63387232e-05,4.05078983e-05,6.33707757e-05
-2.15,1.08996268e-07,1.51039992e-06,4.64184041e-06,1.49568068e-05,3.85665344e-05,6.14648248e-05
-2.2,1.08505271e-07,1.47948103e-06,4.4647135e-06,1.3743281e-05,3.66433328e-05,5.95717641e-05
-2.25,1.08040375e-07,1.45033284e-06,4.30326267e-06,1.26891875e-05,3.47394861e-05,5.76915585e-05
-2.3,1.07600038e-07,1.42280873e-06,4.15548148e-06,1.17771232e-05,3.28567263e-05,5.5824184e-05
-2.35,1.07182833e-07,1.39677789e-06,4.01969723e-06,1.09869296e-05,3.09975813e-05,5.39696296e-05
-2.4,1.06787443e-07,1.37212326e-06,3.89450289e-06,1.02993509e-05,2.91657575e-05,5.21278998e-05
-2.45,1.06412647e-07,1.34873975e-06,3.77870538e-06,9.69759613e-06,2.73666872e-05,5.02990177e-05
-2.5,1.06057315e-07,1.3265327e-06,3.67128579e-06,9.16764687e-06,2.56082457e-05,4.84830287e-05
-2.55,1.05720395e-07,1.30541666e-06,3.57136832e-06,8.69801819e-06,2.39015077e-05,4.66800043e-05
-2.6,1.05400912e-07,1.28531427e-06,3.47819578e-06,8.27935733e-06,2.22611215e-05,4.48900469e-05
-2.65,1.05097956e-07,1.26615533e-06,3.39110994e-06,7.90404267e-06,2.07045457e-05,4.31132953e-05
-2.7,1.0481068e-07,1.24787596e-06,3.30953582e-06,7.56583789e-06,1.92495287e-05,4.13499305e-05
-2.75,1.04538293e-07,1.23041794e-06,3.2329688e-06,7.25961076e-06,1.79103256e-05,3.96001828e-05
-2.8,1.04280056e-07,1.21372807e-06,3.16096417e-06,6.9811103e-06,1.66944936e-05,3.78643439e-05
-2.85,1.0403528e-07,1.19775764e-06,3.09312842e-06,6.72679193e-06,1.56019668e-05,3.61427887e-05
-2.9,1.03803316e-07,1.182462e-06,3.02911209e-06,6.49368056e-06,1.46264452e-05,3.44360295e-05
-2.95,1.0358356e-07,1.16780008e-06,2.96860372e-06,6.27926304e-06,1.37578277e-05,3.27448425e-05
-3.0,1.03375443e-07,1.15373411e-06,2.91132485e-06,6.08140344e-06,1.29844637e-05,3.10705549e-05
-3.05,1.03178432e-07,1.14022923e-06,2.85702571e-06,5.89827593e-06,1.22946947e-05,2.94156208e-05
-3.1,1.02992025e-07,1.12725326e-06,2.80548164e-06,5.72831108e-06,1.16776998e-05,2.77846025e-05
-3.15,1.0281575e-07,1.11477643e-06,2.75649001e-06,5.57015297e-06,1.11238511e-05,2.61854465e-05
-3.2,1.02649164e-07,1.10277117e-06,2.70986757e-06,5.42262431e-06,1.06247833e-05,2.46304379e-05
-3.25,1.02491849e-07,1.09121188e-06,2.66544818e-06,5.28469829e-06,1.01733221e-05,2.31357542e-05
-3.3,1.0234341e-07,1.0800748e-06,2.62308087e-06,5.15547541e-06,9.76335214e-06,2.17189626e-05
-3.35,1.02203477e-07,1.06933782e-06,2.58262815e-06,5.03416446e-06,9.38967261e-06,2.03952646e-05
-3.4,1.02071698e-07,1.05898035e-06,2.54396453e-06,4.92006684e-06,9.04785803e-06,1.91744092e-05
-3.45,1.01947742e-07,1.04898317e-06,2.50697522e-06,4.81256344e-06,8.73413532e-06,1.80596434e-05
-3.5,1.01831295e-07,1.03932837e-06,2.47155506e-06,4.7111037e-06,8.44527798e-06,1.70485821e-05
-3.55,1.01722063e-07,1.02999917e-06,2.43760748e-06,4.61519642e-06,8.17851718e-06,1.6134995e-05
-3.6,1.01619763e-07,1.02097991e-06,2.40504368e-06,4.52440204e-06,7.93146767e-06,1.53105946e-05
-3.65,1.01524133e-07,1.0122559e-06,2.37378184e-06,4.43832598e-06,7.70206649e-06,1.45663876e-05
-3.7,1.01434919e-07,1.00381336e-06,2.34374648e-06,4.35661312e-06,7.48852228e-06,1.38935292e-05
-3.75,1.01351885e-07,9.95639375e-07,2.3148678e-06,4.27894297e-06,7.28927337e-06,1.32837845e-05
-3.8,1.01274803e-07,9.87721806e-07,2.28708121e-06,4.20502558e-06,7.10295307e-06,1.27297285e-05
-3.85,1.01203462e-07,9.80049241e-07,2.26032685e-06,4.13459798e-06,6.9283608e-06,1.22247927e-05
-3.9,1.01137657e-07,9.72610941e-07,2.23454912e-06,4.06742112e-06,6.76443815e-06,1.17632306e-05
-3.95,1.01077196e-07,9.65396795e-07,2.20969637e-06,4.00327725e-06,6.61024877e-06,1.13400442e-05
-4.0,1.01021895e-07,9.58397272e-07,2.18572052e-06,3.94196757e-06,6.46496151e-06,1.09508981e-05
-4.05,1.00971582e-07,9.51603385e-07,2.16257675e-06,3.88331023e-06,6.32783628e-06,1.05920341e-05
-4.1,1.00926091e-07,9.45006649e-07,2.14022326e-06,3.82713858e-06,6.19821206e-06,1.02601912e-05
-4.15,1.00885265e-07,9.38599053e-07,2.11862101e-06,3.77329958e-06,6.07549671e-06,9.95253479e-06
-4.2,1.00848955e-07,9.32373025e-07,2.09773349e-06,3.72165251e-06,5.95915832e-06,9.66659511e-06
-4.25,1.00817019e-07,9.26321404e-07,2.07752652e-06,3.67206767e-06,5.84871782e-06,9.40021442e-06
-4.3,1.00789322e-07,9.20437414e-07,2.05796808e-06,3.6244254e-06,5.74374262e-06,9.151502e-06
-4.35,1.00765737e-07,9.1471464e-07,2.03902815e-06,3.57861509e-06,5.64384116e-06,8.91879605e-06
-4.4,1.0074614e-07,9.09147005e-07,2.02067853e-06,3.53453436e-06,5.54865817e-06,8.70063146e-06
-4.45,1.00730415e-07,9.0372875e-07,2.00289272e-06,3.49208829e-06,5.45787062e-06,8.49571253e-06
-4.5,1.00718452e-07,8.98454411e-07,1.98564584e-06,3.45118878e-06,5.37118414e-06,8.30288995e-06
-4.55,1.00710146e-07,8.93318807e-07,1.96891442e-06,3.41175394e-06,5.28832993e-06,8.12114121e-06
-4.6,1.00705396e-07,8.88317018e-07,1.95267639e-06,3.37370757e-06,5.20906207e-06,7.949554e-06
-4.65,1.00704106e-07,8.83444373e-07,1.93691093e-06,3.33697864e-06,5.13315514e-06,7.78731204e-06
-4.7,1.00706186e-07,8.78696434e-07,1.92159842e-06,3.3015009e-06,5.06040215e-06,7.63368302e-06
-4.75,1.00711547e-07,8.74068983e-07,1.90672032e-06,3.26721248e-06,4.99061268e-06,7.48800825e-06
-4.8,1.00720109e-07,8.69558009e-07,1.89225913e-06,3.23405552e-06,4.92361128e-06,7.34969374e-06
-4.85,1.00731791e-07,8.65159697e-07,1.8781983e-06,3.20197587e-06,4.85923603e-06,7.21820262e-06
-4.9,1.00746519e-07,8.60870415e-07,1.8645222e-06,3.1709228e-06,4.79733726e-06,7.09304845e-06
-4.95,1.0076422e-07,8.56686708e-07,1.85121602e-06,3.14084874e-06,4.73777644e-06,6.97378955e-06
-5.0,1.00784826e-07,8.52605285e-07,1.83826574e-06,3.11170902e-06,4.68042513e-06,6.86002398e-06
-5.05,1.00808273e-07,8.48623009e-07,1.82565809e-06,3.08346171e-06,4.62516412e-06,6.75138527e-06
-5.1,1.00834497e-07,8.44736893e-07,1.81338049e-06,3.05606735e-06,4.57188262e-06,6.64753856e-06
-5.15,1.00863439e-07,8.40944088e-07,1.80142102e-06,3.02948883e-06,4.52047748e-06,6.54817733e-06
-5.2,1.00895042e-07,8.37241877e-07,1.78976835e-06,3.00369118e-06,4.47085263e-06,6.45302049e-06
-5.25,1.00929253e-07,8.33627669e-07,1.77841175e-06,2.97864147e-06,4.42291842e-06,6.3618098e-06
-5.3,1.00966019e-07,8.3009899e-07,1.76734101e-06,2.95430864e-06,4.37659114e-06,6.27430762e-06
-5.35,1.01005291e-07,8.26653478e-07,1.75654647e-06,2.93066335e-06,4.33179253e-06,6.1902949e-06
-5.4,1.01047021e-07,8.23288879e-07,1.74601892e-06,2.90767794e-06,4.28844933e-06,6.10956944e-06
-5.45,1.01091165e-07,8.20003038e-07,1.7357496e-06,2.88532623e-06,4.24649292e-06,6.03194425e-06
-5.5,1.0113768e-07,8.16793897e-07,1.72573021e-06,2.8635835e-06,4.20585896e-06,5.95724624e-06
-5.55,1.01186523e-07,8.13659488e-07,1.71595283e-06,2.84242636e-06,4.16648705e-06,5.88531487e-06
-5.6,1.01237656e-07,8.10597928e-07,1.70640992e-06,2.82183265e-06,4.12832047e-06,5.81600112e-06
-5.65,1.01291041e-07,8.07607416e-07,1.69709434e-06,2.80178143e-06,4.09130588e-06,5.74916644e-06
-5.7,1.01346642e-07,8.04686229e-07,1.68799924e-06,2.78225282e-06,4.0553931e-06,5.68468186e-06
-5.75,1.01404424e-07,8.01832718e-07,1.67911813e-06,2.763228e-06,4.02053487e-06,5.6224272e-06
-5.8,1.01464354e-07,7.99045301e-07,1.6704448e-06,2.74468911e-06,3.98668669e-06,5.5622903e-06
-5.85,1.01526401e-07,7.96322464e-07,1.66197337e-06,2.72661924e-06,3.95380656e-06,5.50416644e-06
-5.9,1.01590534e-07,7.93662756e-07,1.65369818e-06,2.7090023e-06,3.92185487e-06,5.44795768e-06
-5.95,1.01656724e-07,7.91064785e-07,1.64561388e-06,2.69182305e-06,3.89079423e-06,5.39357235e-06
-6.0,1.01724943e-07,7.88527216e-07,1.63771532e-06,2.67506698e-06,3.86058931e-06,5.34092458e-06
-6.05,1.01795165e-07,7.86048766e-07,1.62999763e-06,2.65872035e-06,3.83120672e-06,5.28993382e-06
-6.1,1.01867364e-07,7.83628205e-07,1.62245613e-06,2.64277007e-06,3.80261487e-06,5.24052448e-06
-6.15,1.01941514e-07,7.81264351e-07,1.61508634e-06,2.62720369e-06,3.77478388e-06,5.19262556e-06
-6.2,1.02017594e-07,7.78956068e-07,1.60788402e-06,2.6120094e-06,3.74768548e-06,5.14617029e-06
-6.25,1.02095579e-07,7.76702262e-07,1.60084507e-06,2.59717593e-06,3.72129287e-06,5.10109586e-06
-6.3,1.02175449e-07,7.74501883e-07,1.59396561e-06,2.58269259e-06,3.69558067e-06,5.05734311e-06
-6.35,1.02257181e-07,7.72353918e-07,1.58724189e-06,2.56854917e-06,3.67052481e-06,5.01485633e-06
-6.4,1.02340757e-07,7.70257394e-07,1.58067034e-06,2.55473597e-06,3.6461025e-06,4.97358296e-06
-6.45,1.02426156e-07,7.68211371e-07,1.57424755e-06,2.54124374e-06,3.62229207e-06,4.93347342e-06
-6.5,1.0251336e-07,7.66214944e-07,1.56797025e-06,2.52806366e-06,3.599073e-06,4.89448092e-06
-6.55,1.0260235e-07,7.6426724e-07,1.56183528e-06,2.51518735e-06,3.57642579e-06,4.85656124e-06
-6.6,1.02693111e-07,7.62367417e-07,1.55583965e-06,2.50260678e-06,3.55433193e-06,4.8196726e-06
