vds,vb1,vb2,vb3,vb4,vb5,vb6
0.0,5.73964428e-06,5.30493781e-05,9.26989192e-05,0.000125443813,0.000152684075,0.000175602293
-0.05,3.17999376e-06,4.97216163e-05,8.96195477e-05,0.000122618634,0.000150089795,0.000173213727
-0.1,1.10492993e-06,4.63980152e-05,8.65433661e-05,0.000119796166,0.000147497859,0.000170827207
-0.15,2.39350577e-07,4.3078765e-05,8.34703831e-05,0.000116976408,0.000144908266,0.000168442729
-0.2,6.49352675e-08,3.97641515e-05,8.04006101e-05,0.000114159361,0.000142321013,0.000166060292
-0.25,2.72037481e-08,3.64546145e-05,7.73340623e-05,0.000111345023,0.000139736099,0.000163679895
-0.3,1.56779011e-08,3.31508494e-05,7.42707593e-05,0.000108533396,0.000137153522,0.000161301536
-0.35,1.10366093e-08,2.98539913e-05,7.12107269e-05,0.000105724481,0.000134573281,0.000158925212
-0.4,8.75485359e-09,2.65659593e-05,6.81539985e-05,0.00010291828,0.000131995374,0.000156550922
-0.45,7.45556721e-09,2.32901326e-05,6.51006178e-05,0.000100114796,0.000129419801,0.000154178665
-0.5,6.62938937e-09,2.00327253e-05,6.2050642e-05,9.73140333e-05,0.000126846561,0.000151808438
-0.55,6.05816943e-09,1.68056898e-05,5.90041466e-05,9.45159963e-05,0.000124275653,0.000149440241
-0.6,5.63721961e-09,1.36329549e-05,5.59612321e-05,9.1720692e-05,0.000121707076,0.000147074072
-0.65,5.31151079e-09,1.05634413e-05,5.29220331e-05,8.89281287e-05,0.000119140831,0.00014470993
-0.7,5.04987123e-09,7.69428623e-06,4.98867327e-05,8.61383172e-05,0.000116576918,0.000142347813
-0.75,4.83350376e-09,5.19312217e-06,4.68555824e-05,8.33512707e-05,0.000114015338,0.00013998772
-0.8,4.65045609e-09,3.26104427e-06,4.38289332e-05,8.05670057e-05,0.000111456091,0.000137629651
-0.85,4.4927756e-09,1.98673559e-06,4.08072827e-05,7.77855427e-05,0.00010889918,0.000135273604
-0.9,4.35496017e-09,1.2542559e-06,3.77913493e-05,7.50069075e-05,0.000106344605,0.000132919578
-0.95,4.23307249e-09,8.59508374e-07,3.47821907e-05,7.22311319e-05,0.000103792372,0.000130567573
-1.0,4.12421135e-09,6.44714909e-07,3.17813977e-05,6.94582558e-05,0.000101242482,0.000128217589
-1.05,4.02618404e-09,5.21430628e-07,2.87914182e-05,6.66883292e-05,9.86949403e-05,0.000125869625
-1.1,3.93729624e-09,4.45587907e-07,2.58161097e-05,6.39214152e-05,9.61497532e-05,0.000123523682
-1.15,3.85621324e-09,3.95576733e-07,2.28616969e-05,6.1157594e-05,9.36069273e-05,0.000121179758
-1.2,3.78186569e-09,3.60478028e-07,1.99384421e-05,5.83969676e-05,9.1066471e-05,0.000118837856
-1.25,3.71338409e-09,3.34506596e-07,1.7063531e-05,5.56396678e-05,8.85283947e-05,0.000116497975
-1.3,3.65005211e-09,3.14433836e-07,1.42658191e-05,5.28858652e-05,8.59927106e-05,0.000114160117
-1.35,3.59127279e-09,2.98363878e-07,1.15926841e-05,5.01357839e-05,8.34594339e-05,0.000111824284
-1.4,3.53654351e-09,2.85129224e-07,9.11681438e-06,4.73897206e-05,8.09285825e-05,0.000109490477
-1.45,3.48543724e-09,2.73978985e-07,6.93452369e-06,4.46480733e-05,7.84001782e-05,0.000107158698
-1.5,3.43758814e-09,2.64410901e-07,5.14152307e-06,4.19113822e-05,7.58742475e-05,0.000104828952
-1.55,3.39268053e-09,2.56077004e-07,3.78633958e-06,3.91803908e-05,7.33508222e-05,0.000102501241
-1.6,3.35044019e-09,2.4872856e-07,2.8388843e-06,3.64561378e-05,7.08299413e-05,0.00010017557
-1.65,3.31062748e-09,2.42182762e-07,2.21029026e-06,3.37400961e-05,6.8311652e-05,9.78519444e-05
-1.7,3.27303182e-09,2.3630191e-07,1.80069109e-06,3.10343883e-05,6.57960126e-05,9.55303708e-05
-1.75,3.23746728e-09,2.30980003e-07,1.53062016e-06,2.83421232e-05,6.32830945e-05,9.32108565e-05
-1.8,3.20376888e-09,2.26133863e-07,1.34697626e-06,2.56679252e-05,6.07729861e-05,9.08934107e-05
-1.85,3.17178969e-09,2.21697102e-07,1.21708072e-06,2.3018768e-05,5.82657979e-05,8.85780437e-05
-1.9,3.14139826e-09,2.17615935e-07,1.12137936e-06,2.04052721e-05,5.57616682e-05,8.62647682e-05
-1.95,3.11247664e-09,2.13846205e-07,1.04813906e-06,1.78436529e-05,5.32607718e-05,8.39535988e-05
-2.0,3.0849186e-09,2.10351229e-07,9.90182832e-07,1.53584162e-05,5.07633314e-05,8.16445528e-05
-2.05,3.05862817e-09,2.07100213e-07,9.42999068e-07,1.29854519e-05,4.82696334e-05,7.93376508e-05
-2.1,3.0335184e-09,2.04067062e-07,9.03663655e-07,1.0773983e-05,4.57800492e-05,7.7032917e-05
-2.15,3.0095103e-09,2.01229475e-07,8.70221447e-07,8.78388253e-06,4.32950653e-05,7.47303802e-05
-2.2,2.98653192e-09,1.98568255e-07,8.41325107e-07,7.07409671e-06,4.08153261e-05,7.24300744e-05
-2.25,2.96451757e-09,1.96066757e-07,8.16019348e-07,5.68273836e-06,3.83416949e-05,7.01320406e-05
-2.3,2.94340714e-09,1.93710462e-07,7.93608791e-07,4.60993836e-06,3.5875341e-05,6.78363275e-05
-2.35,2.92314552e-09,1.91486635e-07,7.7357493e-07,3.81770712e-06,3.34178685e-05,6.55429938e-05
-2.4,2.90368203e-09,1.89384049e-07,7.55522638e-07,3.24702609e-06,3.09715036e-05,6.32521103e-05
-2.45,2.88497005e-09,1.87392756e-07,7.39144854e-07,2.83795879e-06,2.85393724e-05,6.09637629e-05
-2.5,2.86696654e-09,1.85503906e-07,7.24198732e-07,2.54136314e-06,2.6125911e-05,5.86780563e-05
-2.55,2.84963177e-09,1.83709596e-07,7.10489182e-07,2.32152896e-06,2.37374663e-05,5.63951191e-05
-2.6,2.83292894e-09,1.82002738e-07,6.97857264e-07,2.15412155e-06,2.13831589e-05,5.41151096e-05
-2.65,2.81682395e-09,1.80376957e-07,6.86171867e-07,2.02301775e-06,1.9076067e-05,5.1838225e-05
-2.7,2.80128514e-09,1.78826499e-07,6.75323623e-07,1.91759217e-06,1.68347102e-05,4.95647117e-05
-2.75,2.78628308e-09,1.77346155e-07,6.65220383e-07,1.83078301e-06,1.46845765e-05,4.72948805e-05
-2.8,2.77179036e-09,1.75931197e-07,6.55783811e-07,1.75781919e-06,1.26589361e-05,4.50291263e-05
-2.85,2.75778143e-09,1.74577324e-07,6.46946772e-07,1.69541012e-06,1.07974967e-05,4.27679554e-05
-2.9,2.74423246e-09,1.73280609e-07,6.38651312e-07,1.64123477e-06,9.14115739e-06,4.05120224e-05
-2.95,2.73112116e-09,1.72037463e-07,6.30847072e-07,1.59361841e-06,7.722522e-06,3.82621819e-05
-3.0,2.71842669e-09,1.70844596e-07,6.23490032e-07,1.55132554e-06,6.55543866e-06,3.60195595e-05
-3.05,2.70612952e-09,1.69698986e-07,6.16541501e-07,1.51342546e-06,5.62976139e-06,3.37856526e-05
-3.1,2.69421136e-09,1.68597855e-07,6.09967304e-07,1.47920323e-06,4.91515901e-06,3.15624716e-05
-3.15,2.68265502e-09,1.67538639e-07,6.03737114e-07,1.44809971e-06,4.37124099e-06,2.93527389e-05
-3.2,2.67144436e-09,1.66518971e-07,5.9782391e-07,1.41967047e-06,3.95767096e-06,2.71601705e-05
-3.25,2.66056422e-09,1.65536662e-07,5.92203518e-07,1.39355692e-06,3.64018771e-06,2.49898663e-05
-3.3,2.65000031e-09,1.64589684e-07,5.86854236e-07,1.36946593e-06,3.39239716e-06,2.28488434e-05
-3.35,2.63973917e-09,1.63676155e-07,5.81756515e-07,1.34715494e-06,3.19508243e-06,2.07467332e-05
-3.4,2.62976814e-09,1.62794324e-07,5.76892693e-07,1.32642108e-06,3.03464764e-06,1.86966231e-05
-3.45,2.62007524e-09,1.61942565e-07,5.7224676e-07,1.30709303e-06,2.90156946e-06,1.6715923e-05
-3.5,2.61064918e-09,1.6111936e-07,5.67804172e-07,1.28902482e-06,2.78916221e-06,1.48269393e-05
-3.55,2.60147929e-09,1.60323295e-07,5.63551677e-07,1.27209113e-06,2.69268552e-06,1.3056552e-05
-3.6,2.59255548e-09,1.59553047e-07,5.59477175e-07,1.25618359e-06,2.60872911e-06,1.14341752e-05
-3.65,2.5838682e-09,1.58807379e-07,5.55569588e-07,1.24120787e-06,2.53479761e-06,9.98742914e-06
-3.7,2.57540841e-09,1.58085135e-07,5.51818758e-07,1.22708139e-06,2.46903205e-06,8.73608454e-06
-3.75,2.56716755e-09,1.57385229e-07,5.48215346e-07,1.21373145e-06,2.41002236e-06,7.68653794e-06
-3.8,2.55913751e-09,1.56706643e-07,5.44750755e-07,1.20109378e-06,2.35668018e-06,6.8297714e-06
-3.85,2.55131058e-09,1.56048422e-07,5.41417051e-07,1.18911125e-06,2.30815147e-06,6.14408911e-06
-3.9,2.54367946e-09,1.55409666e-07,5.38206903e-07,1.17773291e-06,2.26375569e-06,5.60101354e-06
-3.95,2.53623722e-09,1.5478953e-07,5.35113525e-07,1.16691311e-06,2.22294284e-06,5.17129074e-06
-4.0,2.52897725e-09,1.54187219e-07,5.32130625e-07,1.15661086e-06,2.18526261e-06,4.82889187e-06
-4.05,2.5218933e-09,1.53601981e-07,5.29252361e-07,1.14678915e-06,2.15034201e-06,4.55266767e-06
-4.1,2.51497942e-09,1.53033108e-07,5.264733e-07,1.13741456e-06,2.11786876e-06,4.32637317e-06
-4.15,2.50822992e-09,1.52479934e-07,5.23788386e-07,1.12845673e-06,2.0875789e-06,4.13792404e-06
-4.2,2.50163941e-09,1.51941826e-07,5.21192901e-07,1.11988807e-06,2.05924737e-06,3.97846509e-06
-4.25,2.49520277e-09,1.51418189e-07,5.18682444e-07,1.11168344e-06,2.03268078e-06,3.84152848e-06
-4.3,2.48891507e-09,1.50908457e-07,5.16252901e-07,1.10381983e-06,2.00771174e-06,3.72236796e-06
-4.35,2.48277167e-09,1.50412098e-07,5.13900422e-07,1.09627619e-06,1.98419446e-06,3.61746641e-06
-4.4,2.4767681e-09,1.49928604e-07,5.11621401e-07,1.08903318e-06,1.96200121e-06,3.52418387e-06
-4.45,2.47090012e-09,1.49457497e-07,5.09412457e-07,1.08207303e-06,1.94101946e-06,3.44050986e-06
-4.5,2.46516368e-09,1.48998322e-07,5.07270416e-07,1.07537936e-06,1.92114964e-06,3.36489001e-06
-4.55,2.45955489e-09,1.48550648e-07,5.05192297e-07,1.06893703e-06,1.90230318e-06,3.29610449e-06
-4.6,2.45407006e-09,1.48114064e-07,5.03175296e-07,1.06273207e-06,1.88440105e-06,3.23318195e-06
-4.65,2.44870566e-09,1.47688183e-07,5.01216775e-07,1.05675152e-06,1.86737238e-06,3.17533835e-06
-4.7,2.4434583e-09,1.47272635e-07,4.99314246e-07,1.05098337e-06,1.85115347e-06,3.12193267e-06
-4.75,2.43832474e-09,1.46867068e-07,4.97465366e-07,1.04541646e-06,1.83568682e-06,3.07243468e-06
-4.8,2.4333019e-09,1.46471147e-07,4.95667925e-07,1.04004039e-06,1.8209204e-06,3.02640104e-06
-4.85,2.4283868e-09,1.46084555e-07,4.93919833e-07,1.03484551e-06,1.806807e-06,2.98345745e-06
-4.9,2.42357662e-09,1.45706989e-07,4.92219119e-07,1.02982278e-06,1.79330363e-06,2.94328509e-06
-4.95,2.41886862e-09,1.4533816e-07,4.90563917e-07,1.02496377e-06,1.7803711e-06,2.90561021e-06
-5.0,2.41426019e-09,1.44977793e-07,4.88952462e-07,1.02026062e-06,1.76797355e-06,2.87019602e-06
-5.05,2.40974885e-09,1.44625626e-07,4.87383083e-07,1.01570594e-06,1.75607814e-06,2.83683639e-06
-5.1,2.40533218e-09,1.44281408e-07,4.85854197e-07,1.01129282e-06,1.74465468e-06,2.80535077e-06
-5.15,2.40100788e-09,1.43944901e-07,4.84364303e-07,1.00701478e-06,1.73367541e-06,2.77558016e-06
-5.2,2.39677373e-09,1.43615877e-07,4.82911979e-07,1.00286573e-06,1.72311474e-06,2.74738383e-06
-5.25,2.39262762e-09,1.43294118e-07,4.81495872e-07,9.98839955e-07,1.71294902e-06,2.72063669e-06
-5.3,2.3885675e-09,1.42979416e-07,4.80114702e-07,9.94932071e-07,1.7031564e-06,2.69522702e-06
-5.35,2.3845914e-09,1.42671572e-07,4.78767249e-07,9.91137012e-07,1.6937166e-06,2.67105471e-06
-5.4,2.38069743e-09,1.42370396e-07,4.77452356e-07,9.87450003e-07,1.68461081e-06,2.64802974e-06
-5.45,2.37688377e-09,1.42075706e-07,4.76168921e-07,9.83866542e-07,1.67582157e-06,2.62607082e-06
-5.5,2.37314866e-09,1.41787327e-07,4.74915897e-07,9.8038238e-07,1.66733261e-06,2.60510442e-06
-5.55,2.36949042e-09,1.41505093e-07,4.73692287e-07,9.76993504e-07,1.65912877e-06,2.58506377e-06
-5.6,2.36590742e-09,1.41228845e-07,4.72497139e-07,9.73696121e-07,1.65119591e-06,2.56588807e-06
-5.65,2.36239809e-09,1.40958428e-07,4.71329551e-07,9.70486643e-07,1.64352081e-06,2.54752189e-06
-5.7,2.35896091e-09,1.40693697e-07,4.7018866e-07,9.67361677e-07,1.63609113e-06,2.5299145e-06
-5.75,2.35559443e-09,1.40434509e-07,4.69073642e-07,9.64318008e-07,1.62889528e-06,2.51301941e-06
-5.8,2.35229721e-09,1.40180731e-07,4.67983714e-07,9.61352589e-07,1.62192242e-06,2.4967939e-06
-5.85,2.34906792e-09,1.39932231e-07,4.66918127e-07,9.58462532e-07,1.61516238e-06,2.48119867e-06
-5.9,2.34590521e-09,1.39688886e-07,4.65876166e-07,9.55645098e-07,1.60860559e-06,2.46619747e-06
-5.95,2.34280782e-09,1.39450576e-07,4.64857149e-07,9.52897686e-07,1.60224308e-06,2.45175682e-06
-6.0,2.33977451e-09,1.39217185e-07,4.63860421e-07,9.50217827e-07,1.59606638e-06,2.43784574e-06
-6.05,2.33680409e-09,1.38988603e-07,4.62885361e-07,9.47603175e-07,1.59006755e-06,2.42443552e-06
-6.1,2.3338954e-09,1.38764722e-07,4.6193137e-07,9.45051498e-07,1.58423906e-06,2.4114995e-06
-6.15,2.3310473e-09,1.38545441e-07,4.60997879e-07,9.42560677e-07,1.57857385e-06,2.39901292e-06
-6.2,2.32825873e-09,1.38330661e-07,4.60084341e-07,9.40128691e-07,1.57306523e-06,2.38695272e-06
-6.25,2.32552862e-09,1.38120286e-07,4.59190232e-07,9.37753621e-07,1.56770689e-06,2.37529739e-06
-6.3,2.32285594e-09,1.37914224e-07,4.58315052e-07,9.35433636e-07,1.56249287e-06,2.3640269e-06
-6.35,2.3202397e-09,1.37712387e-07,4.57458319e-07,9.33166992e-07,1.55741751e-06,2.35312249e-06
-6.4,2.31767893e-09,1.37514689e-07,4.56619573e-07,9.30952028e-07,1.55247549e-06,2.34256663e-06
-6.45,2.3151727e-09,1.37321048e-07,4.55798373e-07,9.28787158e-07,1.54766173e-06,2.33234291e-06
-6.5,2.31272008e-09,1.37131384e-07,4.54994294e-07,9.26670871e-07,1.54297144e-06,2.32243594e-06
-6.55,2.3103202e-09,1.36945619e-07,4.54206928e-07,9.24601724e-07,1.53840008e-06,2.31283127e-06
-6.6,2.30797218e-09,1.3676368e-07,4.53435886e-07,9.22578338e-07,1.53394334e-06,2.30351533e-06
