vds,vb1,vb2,vb3,vb4,vb5,vb6
0.0,1.40822557e-06,1.30621677e-05,2.28355506e-05,3.10325246e-05,3.79187772e-05,4.37019011e-05
-0.05,7.75828956e-07,1.22406847e-05,2.20767097e-05,3.0337329e-05,3.72813836e-05,4.31162169e-05
-0.1,2.65734324e-07,1.14197707e-05,2.13182641e-05,2.96424654e-05,3.66442765e-05,4.25307824e-05
-0.15,5.64978418e-08,1.05994751e-05,2.05602168e-05,2.89479343e-05,3.6007456e-05,4.19455976e-05
-0.2,1.48654336e-08,9.77987134e-06,1.98025714e-05,2.82537361e-05,3.53709222e-05,4.13606626e-05
-0.25,5.89879278e-09,8.9610722e-06,1.90453326e-05,2.75598715e-05,3.47346752e-05,4.07759772e-05
-0.3,3.18894896e-09,8.1432558e-06,1.82885061e-05,2.68663414e-05,3.4098715e-05,4.01915415e-05
-0.35,2.12130514e-09,7.3267127e-06,1.75320993e-05,2.61731466e-05,3.34630418e-05,3.96073553e-05
-0.4,1.61353265e-09,6.5119348e-06,1.67761215e-05,2.54802883e-05,3.28276558e-05,3.90234188e-05
-0.45,1.33637772e-09,5.69978948e-06,1.60205846e-05,2.47877678e-05,3.21925573e-05,3.84397319e-05
-0.5,1.16843732e-09,4.89187535e-06,1.5265504e-05,2.40955867e-05,3.15577465e-05,3.78562946e-05
-0.55,1.05804657e-09,4.09127482e-06,1.45108998e-05,2.3403747e-05,3.09232237e-05,3.7273107e-05
-0.6,9.80654657e-10,3.30417275e-06,1.37567984e-05,2.27122508e-05,3.02889894e-05,3.66901691e-05
-0.65,9.23528013e-10,2.54322666e-06,1.30032353e-05,2.2021101e-05,2.96550441e-05,3.6107481e-05
-0.7,8.79574109e-10,1.83351276e-06,1.2250258e-05,2.13303008e-05,2.90213883e-05,3.55250428e-05
-0.75,8.44600853e-10,1.21789668e-06,1.14979321e-05,2.06398541e-05,2.83880226e-05,3.49428546e-05
-0.8,8.16002766e-10,7.46546071e-07,1.07463484e-05,1.99497656e-05,2.77549478e-05,3.43609166e-05
-0.85,7.92089091e-10,4.39453214e-07,9.99563609e-06,1.92600413e-05,2.71221648e-05,3.37792289e-05
-0.9,7.71720824e-10,2.65443933e-07,9.24598108e-06,1.8570688e-05,2.64896746e-05,3.31977918e-05
-0.95,7.5410513e-10,1.73251059e-07,8.49765737e-06,1.78817143e-05,2.58574784e-05,3.26166055e-05
-1.0,7.38674013e-10,1.2419647e-07,7.75107726e-06,1.71931309e-05,2.52255776e-05,3.20356703e-05
-1.05,7.25010059e-10,9.6866711e-08,7.00687578e-06,1.65049508e-05,2.45939737e-05,3.14549866e-05
-1.1,7.12799505e-10,8.06689554e-08,6.26605474e-06,1.58171906e-05,2.39626688e-05,3.08745546e-05
-1.15,7.0180171e-10,7.04389737e-08,5.53023258e-06,1.51298706e-05,2.33316648e-05,3.02943749e-05
-1.2,6.91828767e-10,6.35852152e-08,4.80208052e-06,1.44430172e-05,2.27009644e-05,2.97144479e-05
-1.25,6.82731572e-10,5.87471069e-08,4.08607483e-06,1.37566637e-05,2.20705706e-05,2.91347743e-05
-1.3,6.74390098e-10,5.51744538e-08,3.38973013e-06,1.30708533e-05,2.14404869e-05,2.85553547e-05
-1.35,6.66706463e-10,5.24333983e-08,2.72536234e-06,1.23856424e-05,2.08107173e-05,2.79761898e-05
-1.4,6.59599909e-10,5.02616272e-08,2.11177766e-06,1.17011055e-05,2.01812668e-05,2.73972806e-05
-1.45,6.53003106e-10,4.84939713e-08,1.57365029e-06,1.10173419e-05,1.95521412e-05,2.68186279e-05
-1.5,6.46859377e-10,4.70225318e-08,1.13500814e-06,1.03344864e-05,1.89233472e-05,2.6240233e-05
-1.55,6.41120606e-10,4.57744411e-08,8.07248261e-07,9.65272376e-06,1.82948932e-05,2.5662097e-05
-1.6,6.35745618e-10,4.46989927e-08,5.81629232e-07,8.97231124e-06,1.7666789e-05,2.50842215e-05
-1.65,6.30698928e-10,4.37599353e-08,4.349679e-07,8.29361291e-06,1.70390464e-05,2.45066081e-05
-1.7,6.25949756e-10,4.29307132e-08,3.41888001e-07,7.61715195e-06,1.641168e-05,2.39292588e-05
-1.75,6.21471239e-10,4.21914411e-08,2.82499874e-07,6.94369258e-06,1.57847074e-05,2.33521756e-05
-1.8,6.17239809e-10,4.15269312e-08,2.43659074e-07,6.27436868e-06,1.51581504e-05,2.27753612e-05
-1.85,6.1323468e-10,4.09253738e-08,2.17355935e-07,5.61088628e-06,1.45320356e-05,2.21988184e-05
-1.9,6.09437435e-10,4.03774373e-08,1.98847563e-07,4.95583905e-06,1.39063966e-05,2.16225505e-05
-1.95,6.05831689e-10,3.98756398e-08,1.85322649e-07,4.31318421e-06,1.32812755e-05,2.10465614e-05
-2.0,6.02402801e-10,3.94139028e-08,1.75086594e-07,3.68890983e-06,1.26567254e-05,2.04708557e-05
-2.05,5.99137644e-10,3.89872291e-08,1.67092549e-07,3.0918258e-06,1.20328143e-05,1.98954384e-05
-2.1,5.96024406e-10,3.8591466e-08,1.60675609e-07,2.53413636e-06,1.140963e-05,1.93203156e-05
-2.15,5.93052424e-10,3.82231284e-08,1.55401245e-07,2.03096758e-06,1.07872868e-05,1.87454946e-05
-2.2,5.90212044e-10,3.78792655e-08,1.5097743e-07,1.59772927e-06,1.01659353e-05,1.81709836e-05
-2.25,5.87494498e-10,3.75573586e-08,1.47202605e-07,1.24517503e-06,9.54577603e-06,1.75967925e-05
-2.3,5.84891806e-10,3.72552421e-08,1.43934112e-07,9.74648174e-07,8.92707901e-06,1.70229331e-05
-2.35,5.82396683e-10,3.69710411e-08,1.41068602e-07,7.77339541e-07,8.31021249e-06,1.64494193e-05
-2.4,5.80002466e-10,3.67031225e-08,1.38529566e-07,6.38284012e-07,7.69568453e-06,1.58762679e-05
-2.45,5.77703044e-10,3.64500558e-08,1.36259227e-07,5.41708935e-07,7.08420444e-06,1.5303499e-05
-2.5,5.75492803e-10,3.62105814e-08,1.34213156e-07,4.74439614e-07,6.47677338e-06,1.47311369e-05
-2.55,5.73366574e-10,3.59835846e-08,1.3235661e-07,4.26838119e-07,5.87481753e-06,1.41592114e-05
-2.6,5.7131959e-10,3.57680749e-08,1.30662008e-07,3.92351596e-07,5.28038091e-06,1.35877588e-05
-2.65,5.69347446e-10,3.55631684e-08,1.29107145e-07,3.66678793e-07,4.69639539e-06,1.30168241e-05
-2.7,5.67446064e-10,3.53680732e-08,1.27673923e-07,3.47027544e-07,4.12703419e-06,1.24464629e-05
-2.75,5.65611664e-10,3.51820775e-08,1.26347415e-07,3.31578587e-07,3.57811435e-06,1.18767451e-05
-2.8,5.63840736e-10,3.50045391e-08,1.25115182e-07,3.19131725e-07,3.05741701e-06,1.13077589e-05
-2.85,5.62130015e-10,3.48348772e-08,1.23966763e-07,3.08881334e-07,2.57462967e-06,1.07396164e-05
-2.9,5.60476463e-10,3.46725646e-08,1.22893277e-07,3.00275838e-07,2.14046376e-06,1.01724614e-05
-2.95,5.58877246e-10,3.45171217e-08,1.21887131e-07,2.92929677e-07,1.76462811e-06,9.60648041e-06
-3.0,5.57329717e-10,3.4368111e-08,1.20941781e-07,2.86567678e-07,1.45304689e-06,9.04191699e-06
-3.05,5.55831403e-10,3.42251325e-08,1.20051553e-07,2.80989433e-07,1.20570008e-06,8.47909265e-06
-3.1,5.5437999e-10,3.40878195e-08,1.19211494e-07,2.76046124e-07,1.01656068e-06,7.91843563e-06
-3.15,5.52973309e-10,3.39558353e-08,1.18417262e-07,2.71625202e-07,8.75707965e-07,7.36052162e-06
-3.2,5.51609327e-10,3.38288701e-08,1.17665024e-07,2.6764007e-07,7.72189355e-07,6.80613102e-06
-3.25,5.50286134e-10,3.37066382e-08,1.16951385e-07,2.64023029e-07,6.96150853e-07,6.25632923e-06
-3.3,5.49001936e-10,3.35888755e-08,1.16273323e-07,2.60720365e-07,6.39760926e-07,5.71257783e-06
-3.35,5.47755045e-10,3.3475338e-08,1.15628138e-07,2.57688873e-07,5.97247908e-07,5.17688438e-06
-3.4,5.46543873e-10,3.33657992e-08,1.15013408e-07,2.54893367e-07,5.64537007e-07,4.65199475e-06
-3.45,5.45366922e-10,3.32600491e-08,1.14426951e-07,2.52304859e-07,5.38810769e-07,4.14161798e-06
-3.5,5.44222781e-10,3.31578923e-08,1.138668e-07,2.49899214e-07,5.18132873e-07,3.65064204e-06
-3.55,5.43110117e-10,3.30591469e-08,1.1333117e-07,2.47656145e-07,5.0116776e-07,3.18524101e-06
-3.6,5.42027672e-10,3.29636435e-08,1.12818441e-07,2.45558448e-07,4.86985243e-07,2.75269891e-06
-3.65,5.40974256e-10,3.28712237e-08,1.12327137e-07,2.43591417e-07,4.74928691e-07,2.3607365e-06
-3.7,5.39948744e-10,3.27817396e-08,1.1185591e-07,2.41742388e-07,4.6452732e-07,2.0162379e-06
-3.75,5.38950072e-10,3.26950529e-08,1.11403527e-07,2.40000379e-07,4.55437952e-07,1.72362086e-06
-3.8,5.37977231e-10,3.2611034e-08,1.10968856e-07,2.38355812e-07,4.47406177e-07,1.48352284e-06
-3.85,5.37029265e-10,3.25295612e-08,1.10550856e-07,2.36800284e-07,4.40240222e-07,1.29254063e-06
-3.9,5.36105268e-10,3.24505206e-08,1.1014857e-07,2.35326383e-07,4.33793181e-07,1.14420692e-06
-3.95,5.35204381e-10,3.23738047e-08,1.09761112e-07,2.3392754e-07,4.27950769e-07,1.03064553e-06
-4.0,5.34325786e-10,3.22993128e-08,1.09387666e-07,2.32597911e-07,4.22622774e-07,9.44100995e-07
-4.05,5.33468708e-10,3.22269501e-08,1.09027473e-07,2.31332269e-07,4.1773701e-07,8.77872939e-07
-4.1,5.32632411e-10,3.21566269e-08,1.08679832e-07,2.30125927e-07,4.13234971e-07,8.26641904e-07
-4.15,5.31816194e-10,3.20882591e-08,1.0834409e-07,2.28974664e-07,4.09068685e-07,7.86404528e-07
-4.2,5.31019389e-10,3.2021767e-08,1.08019639e-07,2.27874666e-07,4.05198382e-07,7.54241162e-07
-4.25,5.30241362e-10,3.19570754e-08,1.07705915e-07,2.26822478e-07,4.01590759e-07,7.28055957e-07
-4.3,5.29481509e-10,3.18941134e-08,1.07402389e-07,2.2581496e-07,3.98217678e-07,7.06351815e-07
-4.35,5.28739254e-10,3.18328137e-08,1.07108568e-07,2.2484925e-07,3.95055157e-07,6.88056585e-07
-4.4,5.28014047e-10,3.17731127e-08,1.06823992e-07,2.23922735e-07,3.92082599e-07,6.72396603e-07
-4.45,5.27305367e-10,3.17149504e-08,1.06548229e-07,2.23033022e-07,3.89282193e-07,6.58807512e-07
-4.5,5.26612711e-10,3.16582695e-08,1.06280874e-07,2.22177913e-07,3.8663843e-07,6.46872318e-07
-4.55,5.25935605e-10,3.1603016e-08,1.06021547e-07,2.2135539e-07,3.8413773e-07,6.3627859e-07
-4.6,5.25273593e-10,3.15491386e-08,1.05769893e-07,2.20563589e-07,3.81768135e-07,6.26788847e-07
-4.65,5.24626238e-10,3.14965885e-08,1.05525577e-07,2.19800792e-07,3.7951906e-07,6.1821995e-07
-4.7,5.23993127e-10,3.14453194e-08,1.05288281e-07,2.1906541e-07,3.77381096e-07,6.10428663e-07
-4.75,5.2337386e-10,3.13952875e-08,1.05057711e-07,2.1835597e-07,3.75345838e-07,6.03301419e-07
-4.8,5.22768058e-10,3.13464508e-08,1.04833585e-07,2.17671105e-07,3.73405755e-07,5.96747002e-07
-4.85,5.22175355e-10,3.12987696e-08,1.04615639e-07,2.17009545e-07,3.71554067e-07,5.90691245e-07
-4.9,5.21595405e-10,3.1252206e-08,1.04403624e-07,2.16370108e-07,3.69784653e-07,5.85073149e-07
-4.95,5.21027871e-10,3.12067239e-08,1.04197305e-07,2.15751691e-07,3.68091971e-07,5.79842012e-07
-5.0,5.20472435e-10,3.11622891e-08,1.03996458e-07,2.15153267e-07,3.66470983e-07,5.74955269e-07
-5.05,5.19928788e-10,3.11188687e-08,1.03800873e-07,2.14573874e-07,3.64917103e-07,5.70376863e-07
-5.1,5.19396637e-10,3.10764316e-08,1.03610351e-07,2.14012613e-07,3.63426138e-07,5.66075991e-07
-5.15,5.18875699e-10,3.10349479e-08,1.03424701e-07,2.13468643e-07,3.61994254e-07,5.62026137e-07
-5.2,5.18365703e-10,3.09943892e-08,1.03243745e-07,2.12941173e-07,3.60617929e-07,5.58204314e-07
-5.25,5.17866387e-10,3.09547285e-08,1.03067313e-07,2.12429464e-07,3.59293926e-07,5.54590464e-07
-5.3,5.17377502e-10,3.09159396e-08,1.02895243e-07,2.11932818e-07,3.58019261e-07,5.51166981e-07
-5.35,5.16898806e-10,3.08779979e-08,1.02727383e-07,2.11450581e-07,3.56791179e-07,5.47918326e-07
-5.4,5.16430068e-10,3.08408797e-08,1.02563586e-07,2.10982136e-07,3.55607133e-07,5.44830717e-07
-5.45,5.15971064e-10,3.08045622e-08,1.02403714e-07,2.10526902e-07,3.54464761e-07,5.41891873e-07
-5.5,5.1552158e-10,3.07690239e-08,1.02247637e-07,2.10084333e-07,3.53361873e-07,5.39090803e-07
-5.55,5.1508141e-10,3.07342438e-08,1.02095227e-07,2.09653911e-07,3.52296432e-07,5.36417633e-07
-5.6,5.14650353e-10,3.07002022e-08,1.01946367e-07,2.09235149e-07,3.51266543e-07,5.33863461e-07
-5.65,5.14228218e-10,3.06668799e-08,1.01800942e-07,2.08827585e-07,3.50270439e-07,5.3142023e-07
-5.7,5.13814819e-10,3.06342587e-08,1.01658845e-07,2.08430783e-07,3.4930647e-07,5.29080632e-07
-5.75,5.13409977e-10,3.0602321e-08,1.01519972e-07,2.0804433e-07,3.48373095e-07,5.26838012e-07
-5.8,5.1301352e-10,3.057105e-08,1.01384225e-07,2.07667835e-07,3.47468872e-07,5.24686297e-07
-5.85,5.12625281e-10,3.05404296e-08,1.0125151e-07,2.07300929e-07,3.4659245e-07,5.22619931e-07
-5.9,5.12245098e-10,3.05104443e-08,1.01121737e-07,2.06943259e-07,3.45742561e-07,5.20633817e-07
-5.95,5.11872815e-10,3.04810791e-08,1.0099482e-07,2.06594493e-07,3.44918018e-07,5.18723271e-07
-6.0,5.11508282e-10,3.04523198e-08,1.00870679e-07,2.06254314e-07,3.44117701e-07,5.16883977e-07
-6.05,5.11151351e-10,3.04241525e-08,1.00749234e-07,2.05922422e-07,3.43340559e-07,5.15111952e-07
-6.1,5.10801883e-10,3.0396564e-08,1.00630411e-07,2.05598531e-07,3.42585604e-07,5.13403512e-07
-6.15,5.10459739e-10,3.03695416e-08,1.00514138e-07,2.0528237e-07,3.41851901e-07,5.11755246e-07
-6.2,5.10124786e-10,3.03430729e-08,1.00400347e-07,2.0497368e-07,3.41138572e-07,5.10163988e-07
-6.25,5.09796896e-10,3.03171461e-08,1.00288972e-07,2.04672217e-07,3.40444787e-07,5.08626796e-07
-6.3,5.09475944e-10,3.02917498e-08,1.00179951e-07,2.04377746e-07,3.39769761e-07,5.0714093e-07
-6.35,5.09161808e-10,3.0266873e-08,1.00073224e-07,2.04090044e-07,3.39112754e-07,5.0570384e-07
-6.4,5.0885437e-10,3.0242505e-08,9.99687312e-08,2.03808898e-07,3.38473064e-07,5.04313141e-07
-6.45,5.08553516e-10,3.02186356e-08,9.98664191e-08,2.03534107e-07,3.37850027e-07,5.02966609e-07
-6.5,5.08259134e-10,3.01952549e-08,9.97662341e-08,2.03265477e-07,3.37243016e-07,5.01662161e-07
-6.55,5.07971115e-10,3.01723534e-08,9.96681251e-08,2.03002823e-07,3.36651435e-07,5.00397844e-07
-6.6,5.07689354e-10,3.01499217e-08,9.95720432e-08,2.0274597e-07,3.36074719e-07,4.99171828e-07
