vds,vb1,vb2,vb3,vb4,vb5,vb6
0.0,0.000103071904,0.000644588048,0.0010351412,0.00133221069,0.00157260727,0.00176501154
-0.05,7.20118268e-05,0.000607026073,0.000999452619,0.00129873325,0.00154117798,0.00173546295
-0.1,4.27793292e-05,0.000569963129,0.000964159628,0.0012655789,0.00151001916,0.00170614486
-0.15,1.92476876e-05,0.000533393111,0.000929257494,0.00123274423,0.00147912825,0.00167705531
-0.2,7.57873923e-06,0.00049731055,0.00089474157,0.00120022589,0.00144850274,0.00164819235
-0.25,4.2304126e-06,0.000461710875,0.000860607288,0.00116802055,0.00141814013,0.00161955403
-0.3,3.26550868e-06,0.000426590867,0.000826850175,0.00113612492,0.00138803796,0.00159113844
-0.35,2.87861642e-06,0.000391949403,0.000793465852,0.00110453576,0.00135819376,0.00156294367
-0.4,2.66878758e-06,0.000357788773,0.000760450056,0.00107324985,0.0013286051,0.00153496783
-0.45,2.53038666e-06,0.000324117037,0.000727798651,0.00104226403,0.00129926959,0.00150720904
-0.5,2.42813431e-06,0.00029095246,0.000695507654,0.00101157517,0.00127018484,0.00147966545
-0.55,2.34750077e-06,0.000258332137,0.000663573268,0.000981180173,0.00124134848,0.00145233519
-0.6,2.28137881e-06,0.000226329341,0.000631991923,0.000951075998,0.00121275817,0.00142521645
-0.65,2.22578487e-06,0.000195089168,0.000600760343,0.000921259652,0.0011844116,0.0013983074
-0.7,2.17824072e-06,0.000164900675,0.000569875632,0.00089172819,0.00115630648,0.00137160625
-0.75,2.13707944e-06,0.000136328443,0.000539335403,0.000862478724,0.00112844053,0.00134511119
-0.8,2.10111318e-06,0.000110377062,0.000509137973,0.000833508427,0.00110081151,0.00131882047
-0.85,2.0694583e-06,8.84423191e-05,0.000479282656,0.000804814536,0.00107341721,0.00129273231
-0.9,2.04143586e-06,7.16120856e-05,0.000449770212,0.000776394366,0.00104625544,0.00126684499
-0.95,2.01651107e-06,5.97289617e-05,0.000420603573,0.000748245314,0.00101932403,0.00124115678
-1.0,1.99425431e-06,5.15650768e-05,0.000391789008,0.000720364871,0.000992620858,0.00121566597
-1.05,1.974315e-06,4.58009665e-05,0.000363338064,0.000692750641,0.000966143816,0.00119037088
-1.1,1.95640325e-06,4.15247417e-05,0.000335270864,0.000665400359,0.000939890835,0.00116526982
-1.15,1.94027674e-06,3.81997394e-05,0.000307621818,0.000638311915,0.000913859879,0.00114036114
-1.2,1.925731e-06,3.55174104e-05,0.000280449567,0.000611483397,0.000888048943,0.00111564322
-1.25,1.91259205e-06,3.32935114e-05,0.000253854154,0.000584913131,0.000862456058,0.00109111443
-1.3,1.90071082e-06,3.14116164e-05,0.00022800511,0.000558599756,0.000837079293,0.00106677317
-1.35,1.88995872e-06,2.97939464e-05,0.00020318117,0.000532542313,0.000811916752,0.00104261787
-1.4,1.88022419e-06,2.83860039e-05,0.000179806759,0.000506740383,0.000786966579,0.00101864697
-1.45,1.87140996e-06,2.71480951e-05,0.000158434951,0.000481194285,0.000762226961,0.000994858929
-1.5,1.86343076e-06,2.60503971e-05,0.00013960811,0.000455905359,0.000737696122,0.000971252228
-1.55,1.85621154e-06,2.50699373e-05,0.000123625723,0.000430876414,0.000713372331,0.000947825366
-1.6,1.84968596e-06,2.41886559e-05,0.000110412468,0.000406112406,0.000689253898,0.000924576862
-1.65,1.84379518e-06,2.33921149e-05,9.96087584e-05,0.000381621535,0.000665339174,0.000901505252
-1.7,1.83848677e-06,2.26686061e-05,9.07600152e-05,0.00035741705,0.000641626548,0.000878609093
-1.75,1.83371392e-06,2.20085192e-05,8.34474429e-05,0.000333520318,0.000618114435,0.000855886952
-1.8,1.82943466e-06,2.1403882e-05,7.73331699e-05,0.000309966146,0.000594801266,0.000833337415
-1.85,1.82561128e-06,2.08480195e-05,7.21588369e-05,0.000286812022,0.000571685459,0.000810959076
-1.9,1.82220978e-06,2.03352962e-05,6.77299644e-05,0.000264153481,0.000548765379,0.000788750537
-1.95,1.81919944e-06,1.9860919e-05,6.38998794e-05,0.000242146432,0.000526039263,0.0007667104
-2.0,1.81655243e-06,1.94207835e-05,6.0556907e-05,0.000221029798,0.000503505105,0.000744837258
-2.05,1.81424347e-06,1.90113538e-05,5.76149643e-05,0.000201125878,0.000481160475,0.000723129687
-2.1,1.81224956e-06,1.86295663e-05,5.500683e-05,0.000182787843,0.000459002235,0.000701586222
-2.15,1.81054972e-06,1.82727532e-05,5.26793461e-05,0.000166297804,0.000437026127,0.000680205337
-2.2,1.80912477e-06,1.79385798e-05,5.05899736e-05,0.000151778206,0.000415226207,0.000658985407
-2.25,1.80795715e-06,1.76249943e-05,4.87042951e-05,0.000139177607,0.000393594214,0.000637924657
-2.3,1.80703077e-06,1.73301858e-05,4.69941805e-05,0.000128322639,0.000372119208,0.000617021081
-2.35,1.8063308e-06,1.70525497e-05,4.54364239e-05,0.000118986008,0.000350788485,0.000596272335
-2.4,1.80584364e-06,1.67906595e-05,4.40117171e-05,0.000110936281,0.000329592153,0.000575675573
-2.45,1.8055567e-06,1.65432421e-05,4.27038681e-05,0.000103963627,0.000308535685,0.000555227197
-2.5,1.8054584e-06,1.63091582e-05,4.14991996e-05,9.78887152e-05,0.000287665558,0.000534922512
-2.55,1.80553799e-06,1.60873848e-05,4.03860805e-05,9.25628059e-05,0.000267107183,0.00051475519
-2.6,1.80578553e-06,1.58770011e-05,3.93545587e-05,8.78642397e-05,0.000247096629,0.000494716513
-2.65,1.80619181e-06,1.56771754e-05,3.83960693e-05,8.36939835e-05,0.000227969755,0.000474794283
-2.7,1.80674826e-06,1.54871553e-05,3.75032018e-05,7.99713889e-05,0.00021008827,0.000454971322
-2.75,1.80744692e-06,1.53062579e-05,3.66695125e-05,7.66305566e-05,0.000193737094,0.000435223555
-2.8,1.80828039e-06,1.51338622e-05,3.5889372e-05,7.36173683e-05,0.000179057703,0.00041551793
-2.85,1.80924175e-06,1.49694024e-05,3.51578412e-05,7.08871189e-05,0.000166046553,0.000395811032
-2.9,1.81032455e-06,1.48123613e-05,3.44705683e-05,6.8402649e-05,0.00015459681,0.000376050581
-2.95,1.81152279e-06,1.4662266e-05,3.38237046e-05,6.61328759e-05,0.000144548155,0.000356183969
-3.0,1.81283083e-06,1.45186827e-05,3.3213834e-05,6.40516376e-05,0.00013572466,0.000336179636
-3.05,1.81424339e-06,1.43812129e-05,3.26379137e-05,6.21367811e-05,0.000127957075,0.000316064561
-3.1,1.81575556e-06,1.42494899e-05,3.20932249e-05,6.03694391e-05,0.00012109324,0.000295969317
-3.15,1.8173627e-06,1.41231757e-05,3.15773308e-05,5.87334539e-05,0.000115001302,0.000276153231
-3.2,1.81906047e-06,1.40019582e-05,3.10880409e-05,5.72149155e-05,0.000109569272,0.000256977077
-3.25,1.8208448e-06,1.38855488e-05,3.06233811e-05,5.58017896e-05,0.000104702982,0.000238821038
-3.3,1.82271185e-06,1.37736804e-05,3.01815671e-05,5.44836153e-05,0.000100323576,0.000221990433
-3.35,1.82465803e-06,1.36661051e-05,2.97609827e-05,5.32512591e-05,9.63650508e-05,0.000206659811
-3.4,1.82667995e-06,1.35625927e-05,2.93601599e-05,5.2096713e-05,9.27720608e-05,0.000192870943
-3.45,1.82877442e-06,1.34629292e-05,2.8977763e-05,5.10129276e-05,8.94980522e-05,0.000180565493
-3.5,1.83093842e-06,1.33669155e-05,2.86125735e-05,4.99936741e-05,8.65037107e-05,0.000169625999
-3.55,1.83316914e-06,1.32743659e-05,2.82634778e-05,4.90334292e-05,8.37556893e-05,0.000159909458
-3.6,1.8354639e-06,1.3185107e-05,2.79294562e-05,4.81272784e-05,8.12255726e-05,0.000151269322
-3.65,1.83782017e-06,1.30989769e-05,2.76095731e-05,4.72708353e-05,7.8889034e-05,0.000143567591
-3.7,1.84023559e-06,1.30158242e-05,2.73029686e-05,4.64601724e-05,7.67251514e-05,0.000136680256
-3.75,1.84270791e-06,1.29355073e-05,2.70088509e-05,4.56917635e-05,7.47158489e-05,0.000130498817
-3.8,1.845235e-06,1.28578931e-05,2.67264899e-05,4.49624335e-05,7.28454413e-05,0.000124929772
-3.85,1.84781486e-06,1.27828573e-05,2.64552112e-05,4.42693161e-05,7.11002604e-05,0.000119893197
-3.9,1.8504456e-06,1.27102828e-05,2.61943908e-05,4.36098175e-05,6.9468347e-05,0.000115321015
-3.95,1.85312544e-06,1.26400597e-05,2.59434509e-05,4.29815847e-05,6.79391968e-05,0.00011115529
-4.0,1.85585268e-06,1.25720847e-05,2.57018551e-05,4.23824784e-05,6.65035491e-05,0.000107346661
-4.05,1.85862573e-06,1.25062606e-05,2.54691055e-05,4.18105493e-05,6.51532105e-05,0.000103852981
-4.1,1.86144307e-06,1.24424959e-05,2.52447387e-05,4.12640175e-05,6.38809077e-05,0.000100638155
-4.15,1.86430327e-06,1.23807042e-05,2.50283233e-05,4.07412548e-05,6.26801633e-05,9.76711653e-05
-4.2,1.86720498e-06,1.23208041e-05,2.4819457e-05,4.02407686e-05,6.15451906e-05,9.49252601e-05
-4.25,1.87014693e-06,1.22627189e-05,2.46177643e-05,3.97611884e-05,6.04708055e-05,9.23772793e-05
-4.3,1.87312791e-06,1.22063761e-05,2.44228943e-05,3.93012535e-05,5.94523501e-05,9.00070963e-05
-4.35,1.87614677e-06,1.21517072e-05,2.42345189e-05,3.88598022e-05,5.84856287e-05,8.77971546e-05
-4.4,1.87920244e-06,1.20986475e-05,2.40523308e-05,3.84357625e-05,5.75668518e-05,8.57320829e-05
-4.45,1.88229389e-06,1.20471356e-05,2.38760419e-05,3.80281433e-05,5.66925889e-05,8.37983747e-05
-4.5,1.88542015e-06,1.19971138e-05,2.37053822e-05,3.76360275e-05,5.5859727e-05,8.19841207e-05
-4.55,1.88858033e-06,1.19485272e-05,2.35400979e-05,3.72585647e-05,5.50654349e-05,8.02787848e-05
-4.6,1.89177355e-06,1.19013237e-05,2.33799509e-05,3.68949657e-05,5.43071324e-05,7.86730153e-05
-4.65,1.89499899e-06,1.18554543e-05,2.3224717e-05,3.65444968e-05,5.35824632e-05,7.71584859e-05
-4.7,1.8982559e-06,1.18108722e-05,2.30741853e-05,3.62064754e-05,5.28892712e-05,7.57277617e-05
-4.75,1.90154355e-06,1.17675332e-05,2.29281573e-05,3.58802655e-05,5.22255797e-05,7.4374184e-05
-4.8,1.90486124e-06,1.17253955e-05,2.27864459e-05,3.55652738e-05,5.15895736e-05,7.30917736e-05
-4.85,1.90820834e-06,1.16844191e-05,2.26488747e-05,3.52609462e-05,5.09795828e-05,7.1875147e-05
-4.9,1.91158424e-06,1.16445663e-05,2.25152772e-05,3.49667649e-05,5.03940686e-05,7.07194449e-05
-4.95,1.91498835e-06,1.16058011e-05,2.23854962e-05,3.46822454e-05,4.98316105e-05,6.96202708e-05
-5.0,1.91842014e-06,1.15680895e-05,2.22593834e-05,3.44069338e-05,4.9290896e-05,6.85736373e-05
-5.05,1.92187909e-06,1.15313992e-05,2.21367984e-05,3.41404047e-05,4.87707095e-05,6.75759206e-05
-5.1,1.92536474e-06,1.14956992e-05,2.20176088e-05,3.38822589e-05,4.82699248e-05,6.66238199e-05
-5.15,1.92887662e-06,1.14609604e-05,2.1901689e-05,3.36321217e-05,4.77874959e-05,6.57143225e-05
-5.2,1.93241431e-06,1.14271548e-05,2.17889203e-05,3.33896409e-05,4.73224512e-05,6.48446738e-05
-5.25,1.93597741e-06,1.1394256e-05,2.16791905e-05,3.31544852e-05,4.68738861e-05,6.40123497e-05
-5.3,1.93956555e-06,1.13622388e-05,2.15723929e-05,3.2926343e-05,4.6440958e-05,6.32150337e-05
-5.35,1.94317838e-06,1.13310792e-05,2.14684269e-05,3.27049206e-05,4.60228811e-05,6.24505961e-05
-5.4,1.94681556e-06,1.13007543e-05,2.13671968e-05,3.24899416e-05,4.56189215e-05,6.17170754e-05
-5.45,1.95047679e-06,1.12712423e-05,2.1268612e-05,3.2281145e-05,4.52283933e-05,6.10126623e-05
-5.5,1.95416177e-06,1.12425225e-05,2.11725865e-05,3.2078285e-05,4.48506547e-05,6.03356856e-05
-5.55,1.95787024e-06,1.12145752e-05,2.10790389e-05,3.18811292e-05,4.44851049e-05,5.96845987e-05
-5.6,1.96160195e-06,1.11873814e-05,2.09878917e-05,3.16894584e-05,4.41311805e-05,5.90579693e-05
-5.65,1.96535665e-06,1.11609233e-05,2.08990715e-05,3.15030654e-05,4.37883532e-05,5.8454468e-05
-5.7,1.96913414e-06,1.11351836e-05,2.08125084e-05,3.13217543e-05,4.34561268e-05,5.78728603e-05
-5.75,1.97293419e-06,1.11101459e-05,2.07281362e-05,3.11453401e-05,4.31340353e-05,5.73119979e-05
-5.8,1.97675664e-06,1.10857947e-05,2.0645892e-05,3.09736474e-05,4.28216403e-05,5.67708115e-05
-5.85,1.98060128e-06,1.10621149e-05,2.05657157e-05,3.08065105e-05,4.25185296e-05,5.62483041e-05
-5.9,1.98446798e-06,1.10390924e-05,2.04875506e-05,3.06437724e-05,4.22243149e-05,5.57435455e-05
-5.95,1.98835656e-06,1.10167134e-05,2.04113425e-05,3.04852846e-05,4.19386305e-05,5.52556666e-05
-6.0,1.99226689e-06,1.0994965e-05,2.03370398e-05,3.03309061e-05,4.16611317e-05,5.47838544e-05
-6.05,1.99619885e-06,1.09738346e-05,2.02645936e-05,3.01805037e-05,4.13914935e-05,5.43273483e-05
-6.1,2.00015231e-06,1.09533102e-05,2.01939572e-05,3.00339508e-05,4.11294091e-05,5.38854354e-05
-6.15,2.00412716e-06,1.09333805e-05,2.0125086e-05,2.98911274e-05,4.0874589e-05,5.34574474e-05
-6.2,2.00812331e-06,1.09140345e-05,2.00579379e-05,2.97519199e-05,4.06267596e-05,5.30427571e-05
-6.25,2.01214066e-06,1.08952616e-05,1.99924723e-05,2.96162204e-05,4.03856627e-05,5.26407755e-05
-6.3,2.01617912e-06,1.08770518e-05,1.99286509e-05,2.94839263e-05,4.0151054e-05,5.2250949e-05
-6.35,2.02023863e-06,1.08593953e-05,1.9866437e-05,2.93549405e-05,3.99227026e-05,5.18727571e-05
-6.4,2.02431912e-06,1.08422829e-05,1.98057954e-05,2.92291707e-05,3.97003901e-05,5.15057098e-05
-6.45,2.02842051e-06,1.08257056e-05,1.97466929e-05,2.91065293e-05,3.94839099e-05,5.11493458e-05
-6.5,2.03254277e-06,1.08096549e-05,1.96890974e-05,2.89869328e-05,3.92730665e-05,5.08032305e-05
-6.55,2.03668583e-06,1.07941224e-05,1.96329784e-05,2.88703022e-05,3.90676746e-05,5.04669544e-05
-6.6,2.04084965e-06,1.07791002e-05,1.95783069e-05,2.87565622e-05,3.88675589e-05,5.01401309e-05
