vds,vb1,vb2,vb3,vb4,vb5,vb6
0.0,26633579.6,909344.076,447358.073,303221.422,234912.333,195589.183
-0.05,276232713.0,1074314.25,483777.335,318821.317,243645.491,201219.817
-0.1,2577921140.0,1311230.76,526594.586,336095.041,253043.801,207178.654
-0.15,9496150740.0,1678368.2,577651.035,355326.901,263186.216,213495.241
-0.2,20901897800.0,2313473.48,639563.77,376869.298,274164.684,220202.78
-0.25,34293036700.0,3601478.95,716176.993,401164.342,286086.935,227338.706
-0.3,47273405700.0,6783966.66,813362.428,428774.196,299080.012,234945.394
-0.35,58703841700.0,15671137.8,940518.991,460424.55,313294.786,243070.987
-0.4,68387708300.0,38060180.2,1113565.34,497068.289,328911.811,251770.421
-0.45,76526160400.0,81565403.5,1361347.72,539981.051,346148.972,261106.663
-0.5,83409958800.0,146825289.0,1740401.17,590908.716,365271.62,271152.225
-0.55,89303838300.0,227391746.0,2371027.04,652302.207,386606.182,281991.051
-0.6,94419125000.0,314913108.0,3525558.1,727704.633,410558.708,293720.85
-0.65,98916814800.0,403077810.0,5811878.96,822415.044,437640.541,306456.03
-0.7,102917963000.0,488420517.0,10375824.7,944676.378,468504.512,320331.419
-0.75,106513801000.0,569552872.0,18686189.2,1107900.95,503996.954,335507.011
-0.8,109773756000.0,646233395.0,31631797.8,1335030.6,545234.103,352174.106
-0.85,112751359000.0,718738408.0,48808519.8,1667384.83,593716.991,370563.315
-0.9,115488483000.0,787523105.0,68841063.9,2182715.32,651508.833,390955.145
-0.95,118018372000.0,853063438.0,90216333.1,3029603.02,721516.806,413694.167
-1.0,120367789000.0,915792607.0,111813836.0,4478360.37,807953.629,439208.246
-1.05,122558578000.0,976082121.0,132991740.0,6947447.59,917118.337,468035.046
-1.1,124608790000.0,1034241930.0,153462541.0,10903051.6,1058759.38,500859.19
-1.15,126533514000.0,1090527550.0,173146411.0,16605818.9,1248519.51,538565.277
-1.2,128345501000.0,1145148980.0,192066884.0,23920728.9,1512382.3,582315.074
-1.25,130055624000.0,1198279010.0,210290356.0,32396426.2,1894625.72,633662.272
-1.3,131673241000.0,1250060510.0,227895068.0,41505340.6,2470893.82,694727.016
-1.35,133206466000.0,1300612300.0,244956829.0,50823753.7,3364895.15,768467.731
-1.4,134662385000.0,1350033990.0,261543406.0,60082941.1,4755670.56,859114.722
-1.45,136047223000.0,1398409650.0,277713053.0,69142981.2,6846107.14,972877.637
-1.5,137366476000.0,1445810910.0,293514889.0,77947677.3,9777657.12,1119120.53
-1.55,138625012000.0,1492299210.0,308989956.0,86487518.5,13543598.4,1312327.35
-1.6,139827156000.0,1537927700.0,324172449.0,94775768.6,17983818.2,1575337.84
-1.65,140976744000.0,1582742700.0,339090875.0,102834903.0,22863538.2,1944348.27
-1.7,142077171000.0,1626784810.0,353769067.0,110689593.0,27961706.8,2475424.18
-1.75,143131414000.0,1670089750.0,368227041.0,118363410.0,33116371.4,3249454.57
-1.8,144142045000.0,1712688970.0,382481693.0,125877489.0,38228558.3,4367129.81
-1.85,145111235000.0,1754610010.0,396547363.0,133250178.0,43247236.4,5923631.56
-1.9,146040736000.0,1795876550.0,410436301.0,140497136.0,48151934.5,7966965.87
-1.95,146931858000.0,1836508290.0,424159022.0,147631613.0,52939417.0,10468463.1
-2.0,147785434000.0,1876520370.0,437724602.0,154664785.0,57615117.0,13332104.4
-2.05,148601775000.0,1915922510.0,451140899.0,161606076.0,62188167.0,16433845.5
-2.1,149380618000.0,1954717710.0,464414709.0,168463448.0,66668732.6,19659984.7
-2.15,150121066000.0,1992900470.0,477551872.0,175243648.0,71066689.4,22926172.7
-2.2,150821525000.0,2030454440.0,490557303.0,181952418.0,75391041.8,26178903.6
-2.25,151479642000.0,2067349620.0,503434953.0,188594661.0,79649730.6,29388754.5
-2.3,152092237000.0,2103538830.0,516187679.0,195174587.0,83849631.5,32542305.0
-2.35,152655244000.0,2138953750.0,528817009.0,201695818.0,87996640.2,35635662.3
-2.4,153163665000.0,2173500370.0,541322787.0,208161480.0,92095788.3,38670089.1
-2.45,153611521000.0,2207053930.0,553702658.0,214574262.0,96151364.3,41649330.6
-2.5,153991837000.0,2239453680.0,565951394.0,220936450.0,100167025.0,44578090.0
-2.55,154296630000.0,2270497430.0,578060025.0,227249943.0,104145896.0,47461213.1
-2.6,154516937000.0,2299936430.0,590014767.0,233516219.0,108090653.0,50303285.8
-2.65,154642865000.0,2327470680.0,601795729.0,239736275.0,112003599.0,53108460.7
-2.7,154663680000.0,2352745540.0,613375409.0,245910508.0,115886715.0,55880407.7
-2.75,154567928000.0,2375349920.0,624716985.0,252038540.0,119741714.0,58622324.9
-2.8,154343610000.0,2394816960.0,635772439.0,258118966.0,123570068.0,61336978.0
-2.85,153978389000.0,2410627940.0,646480560.0,264149021.0,127373034.0,64026750.3
-2.9,153459851000.0,2422220210.0,656764934.0,270124153.0,131151661.0,66693692.7
-2.95,152775799000.0,2428999760.0,666532016.0,276037485.0,134906776.0,69339571.4
-3.0,151914591000.0,2430359050.0,675669488.0,281879166.0,138638959.0,71965909.3
-3.05,150865503000.0,2425700120.0,684045090.0,287635614.0,142348474.0,74574022.3
-3.1,149619110000.0,2414462520.0,691506212.0,293288642.0,146035188.0,77165048.5
-3.15,148167665000.0,2396155000.0,697880550.0,298814493.0,149698428.0,79739972.1
-3.2,146505473000.0,2370389070.0,702978150.0,304182805.0,153336807.0,82299640.6
-3.25,144629220000.0,2336911790.0,706595179.0,309355553.0,156947984.0,84844773.2
-3.3,142538260000.0,2295634750.0,708519660.0,314286027.0,160528367.0,87375961.7
