vds,vb1,vb2,vb3,vb4,vb5,vb6
0.0,9039335.33,1054354.89,557375.06,384561.651,299450.77,248520.52
-0.05,25537598.7,1214199.07,598880.765,403133.929,310046.182,255379.794
-0.1,160245010.0,1430519.28,647015.787,423574.101,321410.057,262623.023
-0.15,832368296.0,1738972.81,703500.878,446178.561,333629.096,270283.362
-0.2,2486563040.0,2211602.95,770705.045,471309.777,346803.547,278397.898
-0.25,5100672990.0,3013372.32,851979.352,499415.744,361049.939,287008.246
-0.3,8242635450.0,4581625.4,952217.141,531056.676,376504.536,296161.261
-0.35,11443206000.0,8222581.36,1078837.84,566942.33,393327.678,305909.887
-0.4,14419947000.0,17669711.3,1243607.18,607985.15,411709.34,316314.185
-0.45,17072359300.0,40503747.2,1466211.68,655377.608,431876.288,327442.561
-0.5,19401351500.0,84894297.2,1781757.1,710707.446,454101.408,339373.267
-0.55,21446849400.0,152942585.0,2257600.18,776134.039,478716.011,352196.242
-0.6,23256366400.0,239044688.0,3033245.25,854666.456,506126.28,366015.363
-0.65,24872911900.0,334297357.0,4415192.34,950616.752,536835.562,380951.258
-0.7,26331844700.0,431149053.0,7073524.12,1070366.94,571475.051,397144.808
-0.75,27661130900.0,525065579.0,12285780.6,1223720.76,610846.774,414761.575
-0.8,28882596300.0,614056671.0,21812224.4,1426391.98,655984.924,433997.432
-0.85,30013262700.0,697665373.0,36981066.6,1704786.55,708245.223,455085.802
-0.9,31066484100.0,776175420.0,57681679.2,2105526.42,769438.114,478307.066
-0.95,32052837300.0,850148340.0,82410474.0,2714646.88,842032.318,504000.923
-1.0,32980794000.0,920195210.0,109195758.0,3694544.8,929474.543,532582.838
-1.05,33857221600.0,986880140.0,136415895.0,5343130.41,1036706.63,564566.225
-1.1,34687754700.0,1050688740.0,163070881.0,8144773.8,1171028.42,600592.812
-1.15,35477071300.0,1112025430.0,188686052.0,12707477.2,1343582.84,641474.863
-1.2,36229099500.0,1171221930.0,213118565.0,19496165.5,1571984.33,688254.93
-1.25,36947173000.0,1228548780.0,236398749.0,28522746.5,1885056.67,742292.006
-1.3,37634149000.0,1284226610.0,258631326.0,39306555.3,2331333.62,805388.298
-1.35,38292499300.0,1338435950.0,279942650.0,51133145.3,2993501.79,879979.887
-1.4,38924379700.0,1391325260.0,300455832.0,63347906.0,4009148.81,969430.137
-1.45,39531684000.0,1443017480.0,320280782.0,75497836.5,5588383.7,1078491.98
-1.5,40116086500.0,1493615110.0,339511540.0,87332366.6,7998348.2,1214053.2
-1.55,40679073900.0,1543204250.0,358226856.0,98745813.5,11479457.8,1386362.28
-1.6,41221969800.0,1591857840.0,376492005.0,109717906.0,16117630.9,1611069.79
-1.65,41745951900.0,1639638080.0,394360883.0,120271417.0,21776678.2,1912616.6
-1.7,42252063900.0,1686598430.0,411877999.0,130446868.0,28157301.8,2329658.48
-1.75,42741220300.0,1732785090.0,429080198.0,140289097.0,34924139.5,2922891.51
-1.8,43214206400.0,1778238170.0,445998107.0,149840880.0,41803367.1,3783597.7
-1.85,43671672900.0,1822992500.0,462657311.0,159140359.0,48615449.4,5035810.97
-1.9,44114124100.0,1867078150.0,479079300.0,168220387.0,55263717.8,6818417.94
-1.95,44541901700.0,1910520650.0,495282228.0,177108743.0,61708537.5,9238663.46
-2.0,44955162200.0,1953340840.0,511281519.0,185828705.0,67943792.7,12316599.0
-2.05,45353850700.0,1995554400.0,527090346.0,194399702.0,73980517.1,15963979.5
-2.1,45737668500.0,2037170880.0,542719995.0,202837949.0,79837022.2,20017612.7
-2.15,46106038500.0,2078192360.0,558180145.0,211156997.0,85533514.9,24299024.7
-2.2,46458066400.0,2118611430.0,573479055.0,219368208.0,91089438.6,28660169.7
-2.25,46792501100.0,2158408700.0,588623656.0,227481148.0,96522334.3,33000158.5
-2.3,47107694900.0,2197549620.0,603619552.0,235503902.0,101847496.0,37261141.1
-2.35,47401565100.0,2235980630.0,618470899.0,243443339.0,107078014.0,41416334.7
-2.4,47671559900.0,2273624670.0,633180157.0,251305315.0,112224976.0,45458275.8
-2.45,47914631700.0,2310376130.0,647747692.0,259094836.0,117297737.0,49390131.9
-2.5,48127219900.0,2346095170.0,662171180.0,266816181.0,122304176.0,53220148.0
-2.55,48305247000.0,2380601810.0,676444824.0,274472988.0,127250932.0,56958424.8
-2.6,48444132400.0,2413669820.0,690558328.0,282068292.0,132143615.0,60615201.6
-2.65,48538827500.0,2445020870.0,704495622.0,289604523.0,136986979.0,64200027.5
-2.7,48583874500.0,2474319400.0,718233325.0,297083454.0,141785065.0,67721429.1
-2.75,48573495000.0,2501168670.0,731738946.0,304506080.0,146541321.0,71186837.2
-2.8,48501707400.0,2525108890.0,744968835.0,311872422.0,151258695.0,74602639.2
-2.85,48362477100.0,2545618120.0,757865923.0,319181247.0,155939711.0,77974285.7
-2.9,48149895800.0,2562116890.0,770357325.0,326429678.0,160586520.0,81306411.7
-2.95,47858388500.0,2573977550.0,782351895.0,333612689.0,165200929.0,84602955.9
-3.0,47482940600.0,2580538940.0,793737902.0,340722470.0,169784413.0,87867267.6
-3.05,47019336100.0,2581127160.0,804381020.0,347747653.0,174338089.0,91102200.6
-3.1,46464394600.0,2575082360.0,814122897.0,354672392.0,178862665.0,94310192.5
-3.15,45816192500.0,2561790970.0,822780631.0,361475313.0,183358339.0,97493330.7
-3.2,45074252800.0,2540722110.0,830147529.0,368128330.0,187824654.0,100653405.0
-3.25,44239687600.0,2511465660.0,835995554.0,374595384.0,192260295.0,103791950.0
-3.3,43315280100.0,2473769170.0,840079855.0,380831128.0,196662813.0,106910273.0
