vds,vb1,vb2,vb3,vb4,vb5,vb6
0.0,1.43172184e-25,3.80874469e-22,5.98209382e-22,-1.44725253e-22,-2.7208104400000003e-21,1.8751410900000003e-21
0.05,5.51896096e-08,2.60931025e-07,4.38641476e-07,5.82472101e-07,6.92104217e-07,7.70787002e-07
0.1,9.75377501e-08,5.08381247e-07,8.64596788e-07,1.15331898e-06,1.37375312e-06,1.53229969e-06
0.15,1.27290634e-07,7.42381081e-07,1.27789637e-06,1.71256816e-06,2.04497013e-06,2.28455732e-06
0.2,1.45228744e-07,9.6296107e-07,1.67857057e-06,2.26024707e-06,2.70577864e-06,3.02757907e-06
0.25,1.53689101e-07,1.17015197e-06,2.06664965e-06,2.79638307e-06,3.35620192e-06,3.76138409e-06
0.3,1.56846938e-07,1.36398487e-06,2.44216377e-06,3.32100343e-06,3.99626323e-06,4.48599148e-06
0.35,1.58038612e-07,1.5444914e-06,2.80514301e-06,3.83413533e-06,4.62598574e-06,5.20142029e-06
0.4,1.58598606e-07,1.71170405e-06,3.15561737e-06,4.33580587e-06,5.24539255e-06,5.9076895e-06
0.45,1.58931972e-07,1.86565664e-06,3.49361675e-06,4.82604208e-06,5.85450669e-06,6.60481809e-06
0.5,1.59169228e-07,2.00638517e-06,3.81917099e-06,5.30487089e-06,6.45335116e-06,7.29282493e-06
0.55,1.59359403e-07,2.13392925e-06,4.13230983e-06,5.77231914e-06,7.04194885e-06,7.9717289e-06
0.6,1.59523765e-07,2.2483346e-06,4.43306295e-06,6.22841361e-06,7.6203226e-06,8.64154879e-06
0.65,1.59672683e-07,2.34965773e-06,4.72145995e-06,6.67318096e-06,8.18849521e-06,9.30230336e-06
0.7,1.59811703e-07,2.43797479e-06,4.99753037e-06,7.1066478e-06,8.74648937e-06,9.95401132e-06
0.75,1.59944023e-07,2.51339906e-06,5.2613037e-06,7.52884061e-06,9.29432774e-06,1.05966913e-05
0.8,1.600716e-07,2.5761162e-06,5.51280942e-06,7.93978582e-06,9.83203288e-06,1.1230362e-05
0.85,1.60195693e-07,2.626455e-06,5.75207698e-06,8.33950975e-06,1.03596273e-05,1.18550419e-05
0.9,1.60317146e-07,2.66501992e-06,5.97913588e-06,8.72803861e-06,1.08771335e-05,1.24707495e-05
0.95,1.60436547e-07,2.69289376e-06,6.1940157e-06,9.10539856e-06,1.13845738e-05,1.30775033e-05
1.0,1.60554316e-07,2.71180739e-06,6.39674621e-06,9.47161561e-06,1.18819705e-05,1.36753217e-05
1.05,1.60670763e-07,2.72401173e-06,6.58735751e-06,9.82671571e-06,1.23693459e-05,1.42642231e-05
1.1,1.6078612e-07,2.73175566e-06,6.7658802e-06,1.01707247e-05,1.28467221e-05,1.48442258e-05
1.15,1.60900565e-07,2.73678102e-06,6.9323458e-06,1.05036683e-05,1.33141212e-05,1.54153481e-05
1.2,1.6101424e-07,2.74020703e-06,7.0867872e-06,1.08255721e-05,1.37715653e-05,1.59776081e-05
1.25,1.61127254e-07,2.74268471e-06,7.22923966e-06,1.11364616e-05,1.42190762e-05,1.65310241e-05
1.3,1.61239696e-07,2.7445817e-06,7.35974227e-06,1.14363622e-05,1.4656676e-05,1.70756142e-05
1.35,1.61351639e-07,2.74610818e-06,7.47834056e-06,1.17252992e-05,1.50843863e-05,1.76113964e-05
1.4,1.61463143e-07,2.74738809e-06,7.58509103e-06,1.20032976e-05,1.55022289e-05,1.81383888e-05
1.45,1.61574259e-07,2.74849741e-06,7.68006909e-06,1.22703824e-05,1.59102255e-05,1.86566093e-05
1.5,1.61685027e-07,2.7494845e-06,7.76338327e-06,1.25265785e-05,1.63083976e-05,1.91660759e-05
1.55,1.61795485e-07,2.75038128e-06,7.83520027e-06,1.27719105e-05,1.66967666e-05,1.96668064e-05
1.6,1.61905662e-07,2.75120953e-06,7.8957878e-06,1.30064029e-05,1.70753541e-05,2.01588185e-05
1.65,1.62015584e-07,2.75198456e-06,7.94558253e-06,1.323008e-05,1.74441811e-05,2.06421302e-05
1.7,1.62125274e-07,2.75271739e-06,7.98528095e-06,1.34429661e-05,1.7803269e-05,2.11167591e-05
1.75,1.62234753e-07,2.75341618e-06,8.01592218e-06,1.36450852e-05,1.81526389e-05,2.15827228e-05
1.8,1.62344038e-07,2.75408705e-06,8.03889128e-06,1.38364611e-05,1.84923117e-05,2.20400389e-05
1.85,1.62453144e-07,2.75473472e-06,8.05577989e-06,1.40171179e-05,1.88223082e-05,2.24887251e-05
1.9,1.62562084e-07,2.75536287e-06,8.06814404e-06,1.41870795e-05,1.91426493e-05,2.29287986e-05
1.95,1.62670872e-07,2.75597441e-06,8.07729602e-06,1.43463703e-05,1.94533556e-05,2.33602771e-05
2.0,1.62779519e-07,2.75657168e-06,8.08422362e-06,1.44950155e-05,1.97544474e-05,2.37831777e-05
2.05,1.62888034e-07,2.75715658e-06,8.08961824e-06,1.46330419e-05,2.00459451e-05,2.41975179e-05
2.1,1.62996429e-07,2.75773067e-06,8.09394627e-06,1.47604791e-05,2.03278689e-05,2.46033149e-05
2.15,1.63104712e-07,2.75829525e-06,8.09751898e-06,1.48773619e-05,2.06002386e-05,2.50005857e-05
2.2,1.63212892e-07,2.7588514e-06,8.1005452e-06,1.49837344e-05,2.08630741e-05,2.53893476e-05
2.25,1.63320982e-07,2.75940004e-06,8.10316714e-06,1.50796564e-05,2.11163947e-05,2.57696176e-05
2.3,1.6342899e-07,2.75994196e-06,8.10548341e-06,1.51652151e-05,2.13602198e-05,2.61414125e-05
2.35,1.63536929e-07,2.76047781e-06,8.10756387e-06,1.52405444e-05,2.15945682e-05,2.65047492e-05
2.4,1.63644815e-07,2.76100818e-06,8.10945897e-06,1.53058544e-05,2.18194585e-05,2.68596446e-05
2.45,1.63752663e-07,2.76153357e-06,8.11120589e-06,1.53614755e-05,2.2034909e-05,2.72061153e-05
2.5,1.63860495e-07,2.76205442e-06,8.11283253e-06,1.54079112e-05,2.22409374e-05,2.75441779e-05
2.55,1.63968336e-07,2.76257111e-06,8.1143602e-06,1.54458865e-05,2.24375611e-05,2.78738489e-05
2.6,1.64076216e-07,2.76308398e-06,8.11580541e-06,1.54763586e-05,2.26247969e-05,2.81951447e-05
2.65,1.64184173e-07,2.76359333e-06,8.11718114e-06,1.55004637e-05,2.2802661e-05,2.85080815e-05
2.7,1.64292254e-07,2.76409944e-06,8.11849774e-06,1.55194008e-05,2.2971169e-05,2.88126754e-05
2.75,1.64400512e-07,2.76460255e-06,8.11976355e-06,1.55343001e-05,2.31303363e-05,2.91089425e-05
2.8,1.64509016e-07,2.76510288e-06,8.12098539e-06,1.55461287e-05,2.32801774e-05,2.93968984e-05
2.85,1.64617844e-07,2.76560065e-06,8.12216885e-06,1.55556561e-05,2.3420707e-05,2.9676559e-05
2.9,1.64727091e-07,2.76609606e-06,8.12331859e-06,1.55634652e-05,2.35519401e-05,2.99479396e-05
2.95,1.64836868e-07,2.76658929e-06,8.12443853e-06,1.55699853e-05,2.36738933e-05,3.02110555e-05
3.0,1.64947305e-07,2.76708057e-06,8.12553195e-06,1.55755292e-05,2.37865864e-05,3.04659216e-05
3.05,1.65058555e-07,2.76757008e-06,8.12660168e-06,1.55803242e-05,2.38900463e-05,3.07125526e-05
3.1,1.6517079e-07,2.76805808e-06,8.12765011e-06,1.55845367e-05,2.39843122e-05,3.09509629e-05
3.15,1.65284213e-07,2.76854481e-06,8.12867933e-06,1.55882895e-05,2.40694456e-05,3.11811666e-05
3.2,1.6539905e-07,2.7690306e-06,8.12969113e-06,1.55916745e-05,2.41455451e-05,3.14031773e-05
3.25,1.65515561e-07,2.76951579e-06,8.13068709e-06,1.55947614e-05,2.42127687e-05,3.1617008e-05
3.3,1.65634038e-07,2.77000082e-06,8.13166859e-06,1.55976037e-05,2.42713649e-05,3.18226714e-05
3.35,1.65754808e-07,2.77048622e-06,8.13263683e-06,1.56002427e-05,2.43217078e-05,3.20201795e-05
3.4,1.65878235e-07,2.77097263e-06,8.1335929e-06,1.56027113e-05,2.43643282e-05,3.22095435e-05
3.45,1.66004725e-07,2.77146081e-06,8.13453776e-06,1.56050355e-05,2.43999234e-05,3.2390774e-05
3.5,1.66134724e-07,2.77195169e-06,8.13547228e-06,1.56072362e-05,2.44293323e-05,3.25638803e-05
3.55,1.66268726e-07,2.77244638e-06,8.13639724e-06,1.56093305e-05,2.44534731e-05,3.27288711e-05
3.6,1.66407268e-07,2.7729462e-06,8.13731336e-06,1.56113325e-05,2.44732625e-05,3.28857537e-05
3.65,1.66550939e-07,2.77345272e-06,8.13822132e-06,1.56132537e-05,2.44895441e-05,3.30345341e-05
3.7,1.66700379e-07,2.77396778e-06,8.13912178e-06,1.56151038e-05,2.45030438e-05,3.31752173e-05
3.75,1.6685628e-07,2.77449354e-06,8.14001538e-06,1.5616891e-05,2.45143563e-05,3.33078071e-05
3.8,1.6701939e-07,2.77503249e-06,8.14090278e-06,1.56186223e-05,2.45239528e-05,3.34323065e-05
3.85,1.67190511e-07,2.77558752e-06,8.14178468e-06,1.56203035e-05,2.45321986e-05,3.35487186e-05
3.9,1.67370507e-07,2.77616192e-06,8.14266184e-06,1.56219397e-05,2.45393747e-05,3.36570481e-05
3.95,1.67560298e-07,2.77675946e-06,8.14353513e-06,1.56235353e-05,2.45456964e-05,3.3757304e-05
4.0,1.67760868e-07,2.77738441e-06,8.14440555e-06,1.56250942e-05,2.45513289e-05,3.38495044e-05
4.05,1.6797326e-07,2.77804155e-06,8.14527431e-06,1.56266196e-05,2.45564001e-05,3.39336838e-05
4.1,1.68198582e-07,2.77873628e-06,8.14614281e-06,1.56281145e-05,2.45610094e-05,3.40099051e-05
4.15,1.68438005e-07,2.77947457e-06,8.14701278e-06,1.56295815e-05,2.45652349e-05,3.40782762e-05
4.2,1.68692765e-07,2.78026309e-06,8.14788627e-06,1.56310228e-05,2.45691386e-05,3.41389719e-05
4.25,1.68964161e-07,2.78110918e-06,8.14876577e-06,1.56324405e-05,2.45727699e-05,3.41922591e-05
4.3,1.6925356e-07,2.78202091e-06,8.14965425e-06,1.56338364e-05,2.45761689e-05,3.42385191e-05
4.35,1.69562394e-07,2.78300711e-06,8.15055526e-06,1.56352122e-05,2.45793681e-05,3.42782574e-05
4.4,1.69892159e-07,2.78407743e-06,8.151473e-06,1.56365694e-05,2.45823943e-05,3.43120944e-05
4.45,1.70244419e-07,2.78524234e-06,8.15241245e-06,1.56379095e-05,2.45852697e-05,3.43407313e-05
4.5,1.70620801e-07,2.78651317e-06,8.15337941e-06,1.56392338e-05,2.45880129e-05,3.43649008e-05
4.55,1.71022999e-07,2.78790214e-06,8.15438066e-06,1.56405436e-05,2.45906393e-05,3.43853148e-05
4.6,1.71452771e-07,2.78942239e-06,8.15542403e-06,1.56418402e-05,2.45931621e-05,3.44026242e-05
4.65,1.71911939e-07,2.791088e-06,8.1565185e-06,1.56431251e-05,2.45955926e-05,3.44173952e-05
4.7,1.72402388e-07,2.79291401e-06,8.15767437e-06,1.56443997e-05,2.45979404e-05,3.4430103e-05
4.75,1.72926067e-07,2.79491645e-06,8.1589033e-06,1.56456658e-05,2.46002138e-05,3.44411358e-05
4.8,1.73484984e-07,2.79711234e-06,8.16021847e-06,1.56469252e-05,2.460242e-05,3.44508064e-05
4.85,1.7408121e-07,2.79951972e-06,8.1616347e-06,1.56481802e-05,2.46045652e-05,3.4459364e-05
4.9,1.74716874e-07,2.80215764e-06,8.16316855e-06,1.56494336e-05,2.4606655e-05,3.4467007e-05
4.95,1.75394165e-07,2.80504621e-06,8.1648384e-06,1.56506884e-05,2.46086941e-05,3.4473893e-05
5.0,1.76115327e-07,2.80820654e-06,8.16666463e-06,1.56519487e-05,2.46106869e-05,3.44801479e-05
5.05,1.76882661e-07,2.81166083e-06,8.16866969e-06,1.56532189e-05,2.46126371e-05,3.44858725e-05
5.1,1.7769852e-07,2.8154323e-06,8.1708782e-06,1.56545047e-05,2.46145481e-05,3.44911483e-05
5.15,1.78565312e-07,2.81954521e-06,8.17331706e-06,1.56558126e-05,2.4616423e-05,3.44960414e-05
5.2,1.79485496e-07,2.82402488e-06,8.17601555e-06,1.56571504e-05,2.46182644e-05,3.45006059e-05
5.25,1.80461579e-07,2.82889765e-06,8.17900544e-06,1.56585275e-05,2.4620075e-05,3.45048863e-05
5.3,1.81496117e-07,2.83419091e-06,8.18232101e-06,1.56599547e-05,2.4621857e-05,3.45089196e-05
5.35,1.8259171e-07,2.83993304e-06,8.18599922e-06,1.56614445e-05,2.46236128e-05,3.45127366e-05
5.4,1.83751006e-07,2.84615345e-06,8.19007971e-06,1.56630115e-05,2.46253445e-05,3.45163632e-05
5.45,1.84976692e-07,2.85288254e-06,8.19460491e-06,1.56646726e-05,2.46270543e-05,3.45198214e-05
5.5,1.86271497e-07,2.86015167e-06,8.19962006e-06,1.5666447e-05,2.46287444e-05,3.45231299e-05
5.55,1.87638191e-07,2.86799319e-06,8.20517332e-06,1.56683565e-05,2.46304173e-05,3.45263046e-05
5.6,1.89079577e-07,2.87644036e-06,8.21131575e-06,1.56704257e-05,2.46320757e-05,3.45293592e-05
5.65,1.90598497e-07,2.88552739e-06,8.2181014e-06,1.56726825e-05,2.46337226e-05,3.45323058e-05
5.7,1.92197825e-07,2.89528935e-06,8.22558729e-06,1.56751578e-05,2.46353617e-05,3.45351545e-05
5.75,1.93880467e-07,2.90576223e-06,8.2338335e-06,1.56778861e-05,2.46369971e-05,3.45379145e-05
5.8,1.95649357e-07,2.91698283e-06,8.24290311e-06,1.56809058e-05,2.4638634e-05,3.45405937e-05
5.85,1.97507458e-07,2.9289888e-06,8.25286225e-06,1.5684259e-05,2.46402783e-05,3.45431991e-05
5.9,1.99457761e-07,2.94181858e-06,8.2637801e-06,1.5687992e-05,2.46419374e-05,3.45457368e-05
5.95,2.01503278e-07,2.95551138e-06,8.27572888e-06,1.56921555e-05,2.46436199e-05,3.45482123e-05
6.0,2.03647045e-07,2.97010714e-06,8.28878381e-06,1.56968045e-05,2.46453361e-05,3.45506306e-05
6.05,2.05892118e-07,2.98564654e-06,8.30302313e-06,1.5701999e-05,2.46470983e-05,3.45529961e-05
6.1,2.08241573e-07,3.00217091e-06,8.31852804e-06,1.57078037e-05,2.46489208e-05,3.45553129e-05
6.15,2.10698501e-07,3.01972225e-06,8.33538271e-06,1.57142881e-05,2.46508207e-05,3.45575845e-05
6.2,2.13266011e-07,3.03834318e-06,8.35367416e-06,1.57215273e-05,2.46528176e-05,3.45598144e-05
6.25,2.15947222e-07,3.05807691e-06,8.37349233e-06,1.57296013e-05,2.46549342e-05,3.45620059e-05
6.3,2.18745268e-07,3.07896722e-06,8.39492991e-06,1.57385956e-05,2.46571968e-05,3.4564162e-05
6.35,2.21663292e-07,3.10105838e-06,8.41808238e-06,1.57486013e-05,2.46596355e-05,3.4566286e-05
6.4,2.24704445e-07,3.1243952e-06,8.44304789e-06,1.57597151e-05,2.46622841e-05,3.45683811e-05
6.45,2.27871887e-07,3.14902294e-06,8.46992723e-06,1.57720391e-05,2.46651814e-05,3.45704506e-05
6.5,2.31168782e-07,3.17498727e-06,8.49882374e-06,1.57856813e-05,2.46683705e-05,3.45724984e-05
6.55,2.34598297e-07,3.2023343e-06,8.52984327e-06,1.58007556e-05,2.46719e-05,3.45745289e-05
6.6,2.38163604e-07,3.23111047e-06,8.56309405e-06,1.58173815e-05,2.46758238e-05,3.4576547e-05
