vds,vb1,vb2,vb3,vb4,vb5,vb6
0.0,-6.72365501e-22,-7.68051766e-37,2.01080258e-35,-7.28783633e-35,-5.27266156e-35,-1.5148716e-34
0.05,2.99870179e-06,1.77152263e-05,3.00562105e-05,3.97863634e-05,4.70000403e-05,5.20095425e-05
0.1,5.06662696e-06,3.44100236e-05,5.91403068e-05,7.86721504e-05,9.31834388e-05,0.000103290458
0.15,6.2604493e-06,5.00889988e-05,8.72570047e-05,0.00011666165,0.000138553856,0.000153845755
0.2,6.77101982e-06,6.4756754e-05,0.000114410993,0.000153759129,0.000183114933,0.000203678427
0.25,6.93978983e-06,7.8417896e-05,0.000140606932,0.000189968827,0.000226870293,0.000252791453
0.3,7.00147011e-06,9.10770497e-05,0.000165849457,0.000225294962,0.000269823539,0.000301187801
0.35,7.03194954e-06,0.000102738881,0.000190143173,0.000259741728,0.000311978255,0.00034887042
0.4,7.05133527e-06,0.000113408135,0.000213492657,0.000293313294,0.000353338009,0.000395842248
0.45,7.06584571e-06,0.000123089705,0.000235902461,0.000326013804,0.000393906347,0.00044210621
0.5,7.07783424e-06,0.00013178875,0.000257377103,0.00035784738,0.000433686797,0.000487665214
0.55,7.0883517e-06,0.00013951094,0.000277921076,0.000388818119,0.000472682869,0.000532522156
0.6,7.09793081e-06,0.000146262915,0.000297538839,0.000418930091,0.000510898054,0.000576679917
0.65,7.10686937e-06,0.000152053272,0.000316234823,0.000448187344,0.000548335824,0.000620141365
0.7,7.11534708e-06,0.000156894673,0.000334013422,0.000476593899,0.000584999632,0.000662909355
0.75,7.12347923e-06,0.00016080844,0.000350878998,0.000504153754,0.000620892914,0.000704986725
0.8,7.13134351e-06,0.000163834045,0.000366835876,0.000530870878,0.000656019083,0.000746376303
0.85,7.13899445e-06,0.000166045442,0.000381888341,0.000556749214,0.000690381538,0.0007870809
0.9,7.14647167e-06,0.000167567576,0.000396040636,0.00058179268,0.000723983655,0.000827103315
0.95,7.15380475e-06,0.000168569898,0.000409296963,0.000606005161,0.000756828794,0.000866446334
1.0,7.16101637e-06,0.000169224805,0.000421661477,0.000629390516,0.000788920293,0.000905112727
1.05,7.16812422e-06,0.00016966584,0.000433138295,0.000651952571,0.000820261473,0.000943105251
1.1,7.17514243e-06,0.00016997849,0.000443731508,0.00067369512,0.000850855632,0.000980426649
1.15,7.18208239e-06,0.000170212656,0.000453445215,0.000694621919,0.000880706052,0.00101707965
1.2,7.18895345e-06,0.000170396924,0.000462283615,0.000714736687,0.000909815992,0.00105306698
1.25,7.19576339e-06,0.00017054801,0.000470251184,0.0007340431,0.000938188691,0.00108839132
1.3,7.2025187e-06,0.000170676062,0.000477353091,0.000752544786,0.000965827365,0.00112305538
1.35,7.20922492e-06,0.000170787498,0.000483596053,0.000770245319,0.000992735212,0.00115706182
1.4,7.21588677e-06,0.000170886542,0.000488990116,0.00078714821,0.0010189154,0.0011904133
1.45,7.2225083e-06,0.000170976076,0.000493552132,0.0008032569,0.00104437109,0.00122311248
1.5,7.22909306e-06,0.000171058131,0.000497311866,0.000818574745,0.00106910539,0.00125516198
1.55,7.23564412e-06,0.000171134178,0.000500320645,0.000833104996,0.00109312141,0.00128656441
1.6,7.2421642e-06,0.000171205314,0.000502658954,0.000846850786,0.00111642222,0.00131732239
1.65,7.24865568e-06,0.00017127237,0.000504435214,0.000859815097,0.00113901086,0.00134743849
1.7,7.25512069e-06,0.00017133599,0.000505771141,0.00087200073,0.00116089033,0.00137691529
1.75,7.26156114e-06,0.000171396681,0.000506781021,0.000883410269,0.00118206361,0.00140575535
1.8,7.26797872e-06,0.000171454851,0.000507557646,0.000894046034,0.00120253364,0.00143396121
1.85,7.27437496e-06,0.000171510829,0.000508169302,0.000903910048,0.0012223033,0.00146153539
1.9,7.28075127e-06,0.000171564884,0.000508663613,0.000913004018,0.00124137543,0.0014884804
1.95,7.28710891e-06,0.000171617243,0.000509073118,0.000921329381,0.00125975283,0.00151479873
2.0,7.29344904e-06,0.000171668093,0.000509420062,0.000928887507,0.0012774382,0.00154049286
2.05,7.29977277e-06,0.000171717593,0.000509719837,0.000935680237,0.0012944342,0.00156556523
2.1,7.3060811e-06,0.000171765879,0.000509983286,0.000941711064,0.00131074336,0.00159001828
2.15,7.31237502e-06,0.000171813067,0.0005102182,0.000946987479,0.00132636815,0.00161385442
2.2,7.31865549e-06,0.000171859259,0.000510430291,0.000951524989,0.00134131087,0.00163707603
2.25,7.32492348e-06,0.000171904542,0.000510623828,0.000955352795,0.00135557368,0.00165968549
2.3,7.33117999e-06,0.000171948993,0.000510802062,0.000958519518,0.00136915854,0.00168168514
2.35,7.33742608e-06,0.00017199268,0.000510967507,0.000961095374,0.00138206719,0.00170307727
2.4,7.3436629e-06,0.000172035662,0.000511122139,0.000963167433,0.00139430104,0.00172386416
2.45,7.34989177e-06,0.000172077993,0.000511267534,0.000964828794,0.00140586118,0.00174404806
2.5,7.35611416e-06,0.00017211972,0.000511404962,0.000966166935,0.00141674822,0.00176363116
2.55,7.36233179e-06,0.000172160886,0.000511535461,0.000967256201,0.00142696226,0.00178261561
2.6,7.36854669e-06,0.00017220153,0.000511659887,0.000968155554,0.00143650274,0.00180100352
2.65,7.37476121e-06,0.000172241685,0.000511778954,0.000968909839,0.00144536842,0.00181879693
2.7,7.38097816e-06,0.000172281385,0.000511893261,0.000969552468,0.00145355736,0.0018359978
2.75,7.38720083e-06,0.000172320658,0.000512003316,0.000970108175,0.00146106709,0.00185260802
2.8,7.3934331e-06,0.000172359532,0.000512109553,0.000970595318,0.00146789523,0.00186862939
2.85,7.3996795e-06,0.000172398034,0.000512212345,0.000971027636,0.00147404067,0.00188406356
2.9,7.40594534e-06,0.000172436189,0.000512312014,0.000971415523,0.00147950591,0.00189891207
2.95,7.41223678e-06,0.00017247402,0.000512408841,0.000971766941,0.00148430061,0.00191317628
3.0,7.41856091e-06,0.000172511555,0.000512503072,0.000972088067,0.00148844608,0.00192685735
3.05,7.42492589e-06,0.00017254882,0.000512594923,0.00097238375,0.0014919793,0.00193995617
3.1,7.43134105e-06,0.000172585842,0.000512684585,0.000972657849,0.00149495414,0.00195247333
3.15,7.43781699e-06,0.000172622655,0.000512772227,0.000972913465,0.00149743809,0.00196440906
3.2,7.44436567e-06,0.000172659292,0.000512858,0.00097315312,0.00149950533,0.0019757631
3.25,7.45100056e-06,0.000172695795,0.00051294204,0.000973378883,0.0015012288,0.00198653462
3.3,7.45773673e-06,0.000172732211,0.00051302447,0.000973592469,0.00150267425,0.00199672212
3.35,7.46459097e-06,0.000172768595,0.000513105399,0.000973795312,0.00150389731,0.00200632328
3.4,7.47158186e-06,0.000172805012,0.000513184929,0.000973988619,0.00150494308,0.00201533486
3.45,7.47872995e-06,0.000172841537,0.000513263153,0.000974173417,0.00150584722,0.00202375265
3.5,7.4860578e-06,0.000172878259,0.000513340157,0.000974350582,0.00150663756,0.00203157152
3.55,7.49359011e-06,0.000172915281,0.000513416023,0.000974520867,0.00150733571,0.00203878576
3.6,7.5013538e-06,0.000172952725,0.00051349083,0.000974684925,0.0015079585,0.00204538993
3.65,7.50937814e-06,0.000172990731,0.000513564655,0.000974843323,0.00150851907,0.00205138035
3.7,7.51769479e-06,0.000173029459,0.000513637577,0.00097499656,0.00150902779,0.00205675757
3.75,7.52633792e-06,0.000173069096,0.000513709677,0.00097514507,0.00150949288,0.00206152968
3.8,7.53534426e-06,0.000173109852,0.000513781043,0.000975289241,0.00150992094,0.00206571574
3.85,7.54475321e-06,0.000173151967,0.000513851769,0.000975429414,0.00151031731,0.00206934815
3.9,7.55460685e-06,0.000173195714,0.000513921963,0.000975565895,0.00151068634,0.00207247255
3.95,7.56495005e-06,0.000173241395,0.000513991746,0.000975698957,0.0015110316,0.00207514462
4.0,7.57583051e-06,0.000173289352,0.000514061259,0.000975828845,0.00151135608,0.00207742497
4.05,7.58729877e-06,0.000173339964,0.000514130667,0.000975955781,0.00151166225,0.00207937364
4.1,7.59940829e-06,0.000173393651,0.000514200161,0.000976079968,0.00151195221,0.00208104598
4.15,7.61221549e-06,0.000173450876,0.000514269966,0.000976201592,0.00151222774,0.00208249028
4.2,7.62577973e-06,0.000173512148,0.000514340346,0.000976320824,0.00151249035,0.00208374721
4.25,7.64016335e-06,0.000173578023,0.000514411606,0.000976437827,0.00151274135,0.00208485014
4.3,7.6554317e-06,0.000173649108,0.000514484106,0.000976552755,0.00151298186,0.00208582609
4.35,7.67165313e-06,0.000173726061,0.000514558259,0.00097666576,0.00151321287,0.0020866968
4.4,7.68889898e-06,0.000173809594,0.000514634541,0.000976776994,0.00151343523,0.00208747972
4.45,7.70724359e-06,0.000173900475,0.000514713502,0.000976886613,0.00151364968,0.00208818888
4.5,7.72676426e-06,0.000173999528,0.000514795764,0.000976994782,0.0015138569,0.0020888356
4.55,7.74754128e-06,0.000174107637,0.000514882038,0.00097710168,0.00151405746,0.0020894291
4.6,7.76965785e-06,0.000174225745,0.000514973123,0.000977207508,0.00151425189,0.00208997687
4.65,7.79320009e-06,0.000174354857,0.000515069921,0.000977312493,0.00151444066,0.00209048512
4.7,7.81825697e-06,0.00017449604,0.000515173435,0.000977416894,0.00151462417,0.00209095897
4.75,7.8449203e-06,0.000174650424,0.000515284787,0.000977521014,0.00151480282,0.00209140268
4.8,7.87328467e-06,0.000174819204,0.000515405217,0.000977625206,0.00151497692,0.00209181985
4.85,7.90344741e-06,0.000175003636,0.000515536091,0.000977729884,0.00151514681,0.0020922135
4.9,7.93550853e-06,0.000175205045,0.000515678913,0.00097783553,0.00151531276,0.00209258622
4.95,7.96957065e-06,0.000175424818,0.000515835325,0.000977942709,0.00151547504,0.00209294021
5.0,8.00573896e-06,0.00017566441,0.000516007118,0.000978052076,0.0015156339,0.00209327738
5.05,8.04412116e-06,0.000175925338,0.000516196235,0.000978164393,0.00151578959,0.00209359936
5.1,8.08482735e-06,0.000176209186,0.000516404777,0.000978280538,0.00151594234,0.00209390758
5.15,8.12797004e-06,0.000176517601,0.000516635011,0.000978401517,0.00151609239,0.00209420329
5.2,8.17366399e-06,0.000176852296,0.000516889371,0.000978528482,0.00151623999,0.00209448759
5.25,8.22202619e-06,0.000177215045,0.000517170464,0.00097866274,0.0015163854,0.00209476143
5.3,8.27317577e-06,0.000177607687,0.000517481074,0.000978805769,0.00151652891,0.00209502568
5.35,8.32723393e-06,0.000178032121,0.000517824166,0.000978959231,0.00151667086,0.0020952811
5.4,8.38432383e-06,0.000178490307,0.000518202888,0.000979124987,0.00151681159,0.00209552835
5.45,8.44457056e-06,0.000178984266,0.000518620573,0.000979305109,0.00151695154,0.00209576806
5.5,8.50810101e-06,0.000179516075,0.000519080743,0.000979501895,0.0015170912,0.00209600076
5.55,8.57504383e-06,0.000180087871,0.000519587109,0.00097971788,0.00151723114,0.00209622695
5.6,8.6455293e-06,0.000180701844,0.000520143573,0.000979955854,0.00151737203,0.00209644708
5.65,8.7196893e-06,0.000181360241,0.000520754227,0.000980218869,0.00151751466,0.00209666157
5.7,8.79765718e-06,0.000182065358,0.000521423355,0.000980510251,0.00151765994,0.00209687079
5.75,8.87956771e-06,0.000182819545,0.000522155433,0.000980833617,0.00151780893,0.00209707511
5.8,8.96555698e-06,0.000183625202,0.000522955124,0.000981192878,0.00151796286,0.00209727487
5.85,9.05576233e-06,0.000184484773,0.000523827284,0.000981592257,0.00151812315,0.00209747039
5.9,9.15032223e-06,0.000185400751,0.000524776953,0.00098203629,0.00151829141,0.00209766202
5.95,9.24937625e-06,0.000186375673,0.000525809359,0.000982529841,0.00151846951,0.00209785008
6.0,9.35306497e-06,0.000187412115,0.00052692991,0.000983078106,0.00151865953,0.00209803494
6.05,9.46152984e-06,0.000188512696,0.000528144195,0.000983686619,0.00151886384,0.00209821697
6.1,9.57491318e-06,0.000189680072,0.000529457983,0.000984361262,0.00151908511,0.00209839661
6.15,9.69335807e-06,0.000190916937,0.000530877211,0.000985108264,0.0015193263,0.00209857434
6.2,9.81700825e-06,0.000192226017,0.000532407991,0.000985934211,0.00151959072,0.0020987507
6.25,9.94600806e-06,0.000193610072,0.000534056596,0.000986846043,0.00151988203,0.00209892632
6.3,1.00805024e-05,0.000195071891,0.000535829464,0.000987851062,0.00152020427,0.00209910195
6.35,1.02206366e-05,0.000196614292,0.000537733187,0.000988956927,0.00152056186,0.00209927845
6.4,1.03665564e-05,0.000198240119,0.000539774509,0.000990171659,0.00152095965,0.00209945683
6.45,1.05184078e-05,0.000199952241,0.000541960322,0.000991503639,0.00152140291,0.00209963826
6.5,1.0676337e-05,0.000201753548,0.000544297659,0.000992961604,0.00152189737,0.00209982413
6.55,1.08404906e-05,0.000203646953,0.000546793688,0.00099455465,0.00152244921,0.00210001601
6.6,1.10110151e-05,0.000205635385,0.000549455709,0.000996292222,0.00152306511,0.00210021574
