vds,vb1,vb2,vb3,vb4,vb5,vb6
0.0,-2.05986614e-36,-3.98327328e-20,7.31139759e-36,-8.732421829999999e-35,-5.98207104e-20,8.89238505e-20
0.05,1.34502034e-05,6.79599264e-05,0.000104362679,0.000130298679,0.000148275396,0.000160148772
0.1,2.16452923e-05,0.000130108432,0.000202898873,0.000254986595,0.000291314995,0.000315510551
0.15,2.57372409e-05,0.00018663332,0.00029577847,0.000374206458,0.000429234237,0.0004661772
0.2,2.78073341e-05,0.000237716212,0.000383166477,0.000488097883,0.000562146684,0.000612239443
0.25,2.92044935e-05,0.000283531904,0.000465222152,0.000596796708,0.000690163547,0.000753786547
0.3,3.03315893e-05,0.000324248134,0.000542098466,0.000700434537,0.000813393386,0.000890906147
0.35,3.13111232e-05,0.000360024936,0.000613941688,0.000799138281,0.000931941746,0.00102368401
0.4,3.21952371e-05,0.000391012641,0.000680891163,0.000893029826,0.00104591083,0.0011522038
0.45,3.30118731e-05,0.000417348258,0.000743079092,0.000982225884,0.00115539926,0.00127654685
0.5,3.37781046e-05,0.000439159455,0.000800629971,0.001066838,0.00126050193,0.001396792
0.55,3.45052427e-05,0.000456622412,0.000853658991,0.0011469727,0.00136130998,0.00151301549
0.6,3.52012053e-05,0.000470136178,0.000902268333,0.00122273159,0.00145791089,0.0016252909
0.65,3.58717626e-05,0.000480445645,0.000946539461,0.00129421133,0.00155038863,0.00173368917
0.7,3.65212537e-05,0.000488430122,0.000986518749,0.0013615032,0.00163882388,0.0018382787
0.75,3.71530238e-05,0.000494813473,0.0010221946,0.00142469184,0.00172329424,0.00193912544
0.8,3.77697058e-05,0.000500090833,0.00105347495,0.00148385274,0.00180387433,0.00203629312
0.85,3.83734085e-05,0.000504582184,0.00108021027,0.00153904724,0.00188063577,0.00212984338
0.9,3.89658461e-05,0.000508495492,0.00110234539,0.00159031395,0.00195364677,0.00221983599
0.95,3.95484303e-05,0.00051196978,0.00112016322,0.00163765409,0.00202297131,0.00230632896
1.0,4.01223366e-05,0.000515101132,0.00113433805,0.00168100942,0.00208866742,0.00238937863
1.05,4.06885539e-05,0.000517958119,0.00114569762,0.00172023639,0.00215078423,0.00246903958
1.1,4.12479213e-05,0.000520591111,0.00115497586,0.00175509897,0.00220935699,0.00254536441
1.15,4.18011567e-05,0.000523038057,0.00116272692,0.00178533501,0.00226439891,0.00261840315
1.2,4.23488787e-05,0.000525328187,0.00116934317,0.0018108397,0.00231588837,0.00268820226
1.25,4.28916237e-05,0.000527484452,0.00117509851,0.00183186501,0.00236375035,0.002754803
1.3,4.34298597e-05,0.000529525181,0.00118018595,0.00184902131,0.0024078341,0.00281823869
1.35,4.39639972e-05,0.000531465228,0.00118474402,0.00186307226,0.00244789931,0.00287853046
1.4,4.4494398e-05,0.000533316792,0.00118887434,0.00187473013,0.00248364342,0.00293568065
1.45,4.50213827e-05,0.000535090003,0.00119265303,0.00188456673,0.00251481164,0.00298966277
1.5,4.55452361e-05,0.000536793369,0.00119613827,0.00189301037,0.00254137349,0.00304040732
1.55,4.60662127e-05,0.000538434094,0.00119937535,0.00190037421,0.00256363649,0.00308778384
1.6,4.65845406e-05,0.000540018336,0.00120240012,0.00190688692,0.00258218286,0.00313158546
1.65,4.71004248e-05,0.000541551393,0.00120524137,0.00191271721,0.00259769363,0.00317153265
1.7,4.76140503e-05,0.000543037862,0.00120792253,0.00191799135,0.00261080159,0.00320732571
1.75,4.81255843e-05,0.00054448175,0.0012104629,0.00192280547,0.00262202759,0.00323876205
1.8,4.86351787e-05,0.000545886575,0.00121287857,0.00192723392,0.00263177556,0.00326587146
1.85,4.91429716e-05,0.000547255438,0.00121518304,0.0019313351,0.00264035133,0.00328896724
1.9,4.96490891e-05,0.00054859109,0.00121738779,0.00193515559,0.00264798539,0.00330856854
1.95,5.01536464e-05,0.00054989598,0.00121950262,0.00193873298,0.00265485246,0.00332526368
2.0,5.06567492e-05,0.000551172299,0.00122153598,0.00194209802,0.00266108636,0.00333960352
2.05,5.11584948e-05,0.000552422013,0.00122349519,0.00194527614,0.00266679089,0.00335205288
2.1,5.1658973e-05,0.000553646894,0.00122538664,0.00194828855,0.00267204768,0.00336298336
2.15,5.21582668e-05,0.000554848545,0.00122721594,0.00195115314,0.00267692169,0.00337268495
2.2,5.26564535e-05,0.000556028419,0.00122898804,0.00195388511,0.00268146534,0.00338138226
2.25,5.31536055e-05,0.000557187839,0.00123070732,0.00195649746,0.00268572135,0.00338924969
2.3,5.36497906e-05,0.000558328013,0.00123237769,0.00195900143,0.00268972495,0.0033964236
2.35,5.41450732e-05,0.000559450047,0.00123400264,0.00196140675,0.00269350548,0.00340301165
2.4,5.4639515e-05,0.000560554956,0.00123558531,0.00196372193,0.0026970876,0.00340909978
2.45,5.51331753e-05,0.000561643675,0.00123712851,0.00196595443,0.00270049218,0.0034147573
2.5,5.56261122e-05,0.000562717069,0.0012386348,0.00196811085,0.00270373705,0.00342004074
2.55,5.61183831e-05,0.000563775939,0.00124010649,0.00197019702,0.00270683755,0.00342499663
2.6,5.66100458e-05,0.000564821033,0.0012415457,0.00197221815,0.00270980696,0.00342966367
2.65,5.7101159e-05,0.00056585305,0.00124295434,0.00197417888,0.00271265684,0.00343407433
2.7,5.75917836e-05,0.000566872649,0.00124433417,0.00197608341,0.0027153973,0.00343825606
2.75,5.80819834e-05,0.000567880454,0.00124568682,0.00197793549,0.00271803727,0.00344223225
2.8,5.85718258e-05,0.000568877062,0.00124701377,0.00197973851,0.00272058462,0.00344602299
2.85,5.90613838e-05,0.000569863048,0.00124831641,0.00198149558,0.00272304636,0.00344964563
2.9,5.9550736e-05,0.000570838972,0.00124959603,0.00198320949,0.00272542875,0.00345311524
2.95,6.00399685e-05,0.000571805387,0.00125085382,0.00198488281,0.00272773739,0.00345644501
3.0,6.05291759e-05,0.000572762844,0.00125209092,0.00198651789,0.0027299773,0.00345964652
3.05,6.10184624e-05,0.000573711902,0.0012533084,0.00198811689,0.00273215304,0.00346273001
3.1,6.15079435e-05,0.000574653131,0.00125450728,0.00198968179,0.00273426873,0.00346570454
3.15,6.19977468e-05,0.000575587123,0.00125568858,0.00199121446,0.00273632809,0.0034685782
3.2,6.24880139e-05,0.000576514501,0.00125685325,0.00199271661,0.00273833454,0.00347135822
3.25,6.29789013e-05,0.000577435923,0.00125800226,0.00199418986,0.00274029119,0.0034740511
3.3,6.34705826e-05,0.000578352094,0.00125913659,0.00199563573,0.0027422009,0.00347666269
3.35,6.39632488e-05,0.000579263774,0.00126025722,0.00199705569,0.00274406631,0.00347919828
3.4,6.44571111e-05,0.000580171788,0.00126136519,0.00199845113,0.00274588985,0.00348166267
3.45,6.49524012e-05,0.00058107703,0.00126246156,0.00199982343,0.00274767378,0.00348406022
3.5,6.54493736e-05,0.000581980482,0.00126354748,0.00200117394,0.00274942022,0.00348639492
3.55,6.59483066e-05,0.000582883213,0.00126462417,0.00200250402,0.00275113118,0.00348867043
3.6,6.64495039e-05,0.000583786397,0.00126569296,0.00200381505,0.00275280855,0.0034908901
3.65,6.69532962e-05,0.000584691317,0.00126675529,0.00200510847,0.00275445414,0.00349305703
3.7,6.74600422e-05,0.000585599375,0.00126781274,0.00200638576,0.00275606974,0.0034951741
3.75,6.79701306e-05,0.000586512107,0.00126886703,0.00200764854,0.00275765708,0.00349724399
3.8,6.84839809e-05,0.000587431183,0.00126992009,0.00200889851,0.0027592179,0.00349926921
3.85,6.90020451e-05,0.000588358425,0.001270974,0.00201013752,0.00276075398,0.00350125214
3.9,6.95248088e-05,0.000589295808,0.0012720311,0.00201136762,0.00276226714,0.00350319506
3.95,7.00527923e-05,0.000590245474,0.00127309391,0.00201259101,0.00276375927,0.00350510017
4.0,7.05865521e-05,0.000591209739,0.00127416526,0.00201381017,0.00276523241,0.0035069696
4.05,7.11266821e-05,0.000592191099,0.0012752482,0.00201502781,0.00276668872,0.0035088055
4.1,7.16738141e-05,0.000593192237,0.0012763461,0.00201624693,0.00276813055,0.00351061001
4.15,7.22286195e-05,0.000594216035,0.00127746264,0.00201747085,0.00276956049,0.00351238532
4.2,7.27918097e-05,0.000595265572,0.0012786018,0.00201870325,0.00277098135,0.00351413372
4.25,7.33641376e-05,0.000596344139,0.00127976795,0.00201994817,0.00277239626,0.00351585761
4.3,7.39463978e-05,0.000597455236,0.00128096577,0.00202121008,0.00277380869,0.00351755958
4.35,7.45394278e-05,0.000598602584,0.00128220036,0.00202249386,0.00277522246,0.0035192424
4.4,7.51441086e-05,0.000599790124,0.00128347718,0.0020238049,0.00277664184,0.0035209091
4.45,7.57613653e-05,0.000601022024,0.00128480211,0.00202514905,0.00277807152,0.00352256302
4.5,7.63921676e-05,0.000602302681,0.00128618144,0.00202653269,0.00277951672,0.00352420782
4.55,7.70375305e-05,0.000603636725,0.00128762191,0.00202796277,0.00278098319,0.00352584759
4.6,7.76985147e-05,0.000605029016,0.00128913066,0.00202944679,0.00278247726,0.00352748683
4.65,7.83762268e-05,0.000606484653,0.00129071531,0.00203099286,0.00278400588,0.00352913056
4.7,7.90718198e-05,0.000608008969,0.00129238394,0.00203260972,0.00278557666,0.00353078435
4.75,7.97864932e-05,0.000609607535,0.00129414507,0.00203430673,0.00278719792,0.00353245435
4.8,8.05214929e-05,0.000611286156,0.0012960077,0.00203609393,0.0027888787,0.00353414738
4.85,8.12781119e-05,0.000613050875,0.00129798131,0.00203798202,0.00279062882,0.00353587098
4.9,8.20576903e-05,0.000614907967,0.00130007584,0.0020399824,0.0027924589,0.0035376334
4.95,8.28616151e-05,0.000616863941,0.00130230172,0.00204210715,0.00279438038,0.00353944375
5.0,8.36913203e-05,0.000618925534,0.00130466986,0.00204436911,0.00279640558,0.00354131197
5.05,8.45482866e-05,0.000621099714,0.00130719162,0.0020467818,0.0027985477,0.00354324889
5.1,8.54340412e-05,0.000623393669,0.00130987887,0.00204935949,0.00280082085,0.00354526631
5.15,8.6350158e-05,0.00062581481,0.00131274391,0.00205211716,0.00280324007,0.00354737701
5.2,8.72982568e-05,0.000628370765,0.00131579955,0.00205507056,0.00280582135,0.00354959481
5.25,8.82800033e-05,0.000631069372,0.00131905902,0.00205823613,0.00280858164,0.00355193458
5.3,8.92971087e-05,0.000633918678,0.00132253602,0.00206163108,0.00281153887,0.00355441231
5.35,9.0351329e-05,0.000636926932,0.0013262447,0.00206527333,0.00281471196,0.0035570451
5.4,9.14444653e-05,0.000640102577,0.00133019962,0.00206918152,0.00281812079,0.00355985124
5.45,9.25783623e-05,0.000643454252,0.0013344158,0.00207337501,0.00282178627,0.00356285017
5.5,9.37549088e-05,0.000646990775,0.00133890865,0.00207787384,0.00282573027,0.00356606255
5.55,9.49760361e-05,0.000650721148,0.00134369399,0.00208269877,0.00282997567,0.00356951026
5.6,9.62437185e-05,0.000654654542,0.00134878801,0.00208787121,0.00283454632,0.0035732164
5.65,9.75599717e-05,0.000658800294,0.00135420732,0.00209341324,0.00283946703,0.00357720532
5.7,9.89268528e-05,0.0006631679,0.00135996884,0.00209934757,0.00284476358,0.0035815026
5.75,0.000100346459,0.000667767007,0.00136608987,0.00210569756,0.00285046268,0.00358613507
5.8,0.000101820929,0.000672607405,0.00137258803,0.00211248713,0.00285659199,0.00359113078
5.85,0.000103352437,0.000677699023,0.00137948126,0.00211974081,0.00286318004,0.00359651903
5.9,0.000104943199,0.00068305192,0.0013867878,0.00212748367,0.00287025625,0.00360233032
5.95,0.000106595466,0.000688676273,0.00139452616,0.00213574132,0.00287785089,0.00360859634
6.0,0.000108311528,0.000694582378,0.00140271514,0.00214453986,0.00288599505,0.00361534998
6.05,0.00011009371,0.000700780636,0.00141137375,0.00215390589,0.00289472061,0.00362262524
6.1,0.00011194437,0.000707281545,0.00142052127,0.00216386643,0.00290406023,0.0036304573
6.15,0.000113865904,0.000714095697,0.00143017716,0.00217444894,0.00291404725,0.00363888238
6.2,0.000115860738,0.000721233768,0.0014403611,0.00218568128,0.00292471574,0.00364793779
6.25,0.000117931333,0.000728706508,0.00145109292,0.00219759165,0.00293610039,0.00365766184
6.3,0.00012008018,0.000736524738,0.00146239262,0.0022102086,0.0029482365,0.00366809381
6.35,0.000122309802,0.000744699339,0.00147428034,0.00222356096,0.00296115995,0.00367927393
6.4,0.00012462275,0.000753241244,0.00148677635,0.00223767786,0.00297490713,0.00369124331
6.45,0.000127021606,0.000762161435,0.00149990099,0.00225258863,0.00298951493,0.00370404388
6.5,0.000129508979,0.00077147093,0.00151367472,0.00226832284,0.00300502064,0.00371771837
6.55,0.000132087505,0.00078118078,0.00152811804,0.00228491022,0.00302146197,0.00373231022
6.6,0.000134759847,0.000791302059,0.00154325152,0.00230238064,0.00303887696,0.00374786356
