vds,vb1,vb2,vb3,vb4,vb5,vb6
0.0,2.90576047e-37,9.98062028e-22,-2.36332583e-20,8.75140165e-20,-1.05918867e-35,9.50811269e-20
0.05,1.98439539e-06,1.15063048e-05,1.80898476e-05,2.2870961e-05,2.62494222e-05,2.85337665e-05
0.1,3.14105829e-06,2.20303429e-05,3.51749925e-05,4.47612953e-05,5.15746107e-05,5.62162878e-05
0.15,3.67120915e-06,3.16050078e-05,5.12861313e-05,6.56974724e-05,7.5997428e-05,8.3065236e-05
0.2,3.91448519e-06,4.02619881e-05,6.64529588e-05,8.57052583e-05,9.95392641e-05,0.000109097967
0.25,4.06848002e-06,4.80317233e-05,8.07040985e-05,0.000104809656,0.000122220991,0.000134331491
0.3,4.18791015e-06,5.4943379e-05,9.4067067e-05,0.000123034873,0.000144062942,0.000158782457
0.35,4.28891315e-06,6.10247589e-05,0.000106568241,0.000140404286,0.000165084877,0.000182467131
0.4,4.37817883e-06,6.63020637e-05,0.000118232836,0.000156940413,0.000185305959,0.000205401378
0.45,4.45921181e-06,7.07994788e-05,0.000129084869,0.000172664906,0.000204744732,0.000227600639
0.5,4.53411877e-06,7.45394816e-05,0.000139147085,0.000187598555,0.000223419111,0.000249079919
0.55,4.60427992e-06,7.75487619e-05,0.000148440759,0.000201761295,0.000241346386,0.000269853779
0.6,4.67065419e-06,7.98802085e-05,0.000156985276,0.000215172217,0.000258543225,0.000289936328
0.65,4.73393699e-06,8.16406388e-05,0.000164797302,0.00022784955,0.000275025697,0.000309341233
0.7,4.79464952e-06,8.29747778e-05,0.000171889225,0.000239810612,0.00029080929,0.000328081723
0.75,4.85319283e-06,8.40142951e-05,0.000178266517,0.000251071667,0.000305908929,0.000346170607
0.8,4.90988224e-06,8.48531117e-05,0.0001839241,0.000261647657,0.000320338988,0.000363620293
0.85,4.96497016e-06,8.55521048e-05,0.000188844376,0.000271551704,0.000334113277,0.000380442799
0.9,5.01866183e-06,8.61502828e-05,0.000193006008,0.000280794239,0.000347245005,0.000396649783
0.95,5.07112632e-06,8.66732255e-05,0.000196414047,0.000289381541,0.000359746689,0.000412252544
1.0,5.12250455e-06,8.7138274e-05,0.000199134487,0.000297313365,0.000371629985,0.00042726204
1.05,5.17291519e-06,8.7557588e-05,0.000201289056,0.000304579488,0.000382905407,0.000441688873
1.1,5.2224591e-06,8.79399611e-05,0.000203012542,0.000311155835,0.000393581846,0.000455543266
1.15,5.27122266e-06,8.82919293e-05,0.000204418891,0.000317003653,0.000403665805,0.00046883501
1.2,5.31928046e-06,8.86184676e-05,0.00020559251,0.000322079938,0.000413160186,0.000481573369
1.25,5.36669726e-06,8.89234423e-05,0.000206592827,0.000326365785,0.00042206241,0.000493766921
1.3,5.41352971e-06,8.92099132e-05,0.000207461346,0.000329898585,0.000430361688,0.000505423316
1.35,5.45982758e-06,8.94803405e-05,0.000208227375,0.000332775259,0.0004380356,0.000516548891
1.4,5.50563485e-06,8.973673e-05,0.000208912014,0.000335121378,0.000445047309,0.000527148079
1.45,5.55099054e-06,8.99807379e-05,0.000209530779,0.000337056966,0.000451347421,0.000537222514
1.5,5.59592945e-06,9.02137464e-05,0.000210095324,0.000338679888,0.000456886997,0.000546769686
1.55,5.64048272e-06,9.04369207e-05,0.000210614571,0.000340064066,0.000461643687,0.000555780991
1.6,5.68467833e-06,9.06512518e-05,0.000211095481,0.000341263724,0.000465646717,0.000564239144
1.65,5.72854149e-06,9.08575897e-05,0.000211543567,0.000342318466,0.000468978154,0.000572115331
1.7,5.77209503e-06,9.1056668e-05,0.000211963266,0.000343257459,0.000471748927,0.000579367667
1.75,5.81535964e-06,9.1249125e-05,0.00021235819,0.000344102482,0.00047407079,0.000585944492
1.8,5.85835414e-06,9.14355187e-05,0.000212731318,0.000344870058,0.000476040016,0.000591796969
1.85,5.90109573e-06,9.16163401e-05,0.000213085134,0.000345572925,0.000477733025,0.000596900765
1.9,5.94360013e-06,9.17920232e-05,0.000213421725,0.000346221059,0.000479208235,0.00060127548
1.95,5.98588177e-06,9.19629538e-05,0.000213742865,0.000346822385,0.000480509741,0.000604986387
2.0,6.02795391e-06,9.21294759e-05,0.000214050069,0.000347383284,0.000481670865,0.000608127184
2.05,6.06982882e-06,9.22918978e-05,0.000214344645,0.000347908957,0.000482716994,0.000610797651
2.1,6.11151781e-06,9.2450497e-05,0.000214627726,0.000348403693,0.000483667693,0.000613088372
2.15,6.15303144e-06,9.26055235e-05,0.000214900301,0.000348871061,0.000484538233,0.000615074655
2.2,6.19437952e-06,9.27572043e-05,0.00021516324,0.000349314064,0.000485340691,0.000616816331
2.25,6.23557127e-06,9.29057452e-05,0.000215417308,0.000349735246,0.000486084735,0.000618359987
2.3,6.27661537e-06,9.3051334e-05,0.000215663185,0.000350136781,0.0004867782,0.000619741713
2.35,6.31752005e-06,9.31941424e-05,0.000215901475,0.000350520541,0.000487427506,0.000620989552
2.4,6.35829321e-06,9.33343278e-05,0.00021613272,0.000350888146,0.000488037966,0.000622125458
2.45,6.39894246e-06,9.34720351e-05,0.000216357405,0.00035124101,0.00048861402,0.000623166785
2.5,6.43947522e-06,9.36073979e-05,0.000216575968,0.00035158037,0.00048915941,0.000624127397
2.55,6.47989883e-06,9.374054e-05,0.000216788804,0.000351907317,0.000489677316,0.000625018487
2.6,6.52022063e-06,9.38715768e-05,0.000216996273,0.000352222817,0.000490170463,0.000625849186
2.65,6.56044805e-06,9.4000616e-05,0.0002171987,0.000352527729,0.000490641195,0.000626627019
2.7,6.6005887e-06,9.41277589e-05,0.000217396385,0.00035282282,0.00049109155,0.000627358243
2.75,6.64065053e-06,9.42531016e-05,0.000217589601,0.000353108777,0.000491523303,0.000628048109
2.8,6.68064187e-06,9.43767356e-05,0.000217778599,0.000353386219,0.000491938013,0.000628701058
2.85,6.7205716e-06,9.44987491e-05,0.000217963612,0.000353655706,0.000492337053,0.000629320874
2.9,6.76044923e-06,9.46192282e-05,0.000218144853,0.000353917742,0.000492721642,0.000629910806
2.95,6.80028505e-06,9.47382575e-05,0.000218322523,0.00035417279,0.000493092862,0.000630473658
3.0,6.84009027e-06,9.48559215e-05,0.000218496811,0.000354421268,0.00049345168,0.000631011869
3.05,6.87987711e-06,9.49723058e-05,0.000218667893,0.00035466356,0.000493798966,0.000631527571
3.1,6.91965898e-06,9.50874978e-05,0.000218835939,0.000354900021,0.000494135499,0.000632022636
3.15,6.95945059e-06,9.52015885e-05,0.000219001111,0.000355130976,0.000494461987,0.000632498716
3.2,6.99926813e-06,9.53146735e-05,0.000219163567,0.000355356727,0.000494779068,0.000632957278
3.25,7.03912935e-06,9.54268543e-05,0.000219323463,0.000355577555,0.000495087324,0.000633399627
3.3,7.07905377e-06,9.55382397e-05,0.000219480957,0.000355793724,0.000495387286,0.000633826932
3.35,7.11906281e-06,9.56489471e-05,0.000219636205,0.000356005484,0.000495679441,0.000634240239
3.4,7.15917991e-06,9.57591042e-05,0.000219789371,0.000356213074,0.000495964236,0.000634640494
3.45,7.19943069e-06,9.58688502e-05,0.000219940626,0.000356416724,0.000496242081,0.000635028549
3.5,7.23984312e-06,9.59783374e-05,0.000220090149,0.000356616659,0.000496513362,0.000635405179
3.55,7.28044763e-06,9.60877329e-05,0.000220238135,0.000356813103,0.000496778434,0.000635771088
3.6,7.32127724e-06,9.61972196e-05,0.000220384791,0.00035700628,0.000497037635,0.000636126919
3.65,7.36236777e-06,9.63069984e-05,0.000220530346,0.000357196422,0.000497291282,0.000636473262
3.7,7.40375788e-06,9.64172892e-05,0.000220675048,0.000357383767,0.000497539681,0.000636810658
3.75,7.44548926e-06,9.65283328e-05,0.000220819171,0.000357568567,0.000497783128,0.000637139608
3.8,7.48760674e-06,9.66403919e-05,0.000220963017,0.000357751093,0.000498021915,0.000637460577
3.85,7.53015841e-06,9.67537531e-05,0.00022110692,0.000357931634,0.000498256332,0.000637774
3.9,7.57319574e-06,9.68687277e-05,0.000221251248,0.000358110507,0.000498486675,0.000638080286
3.95,7.61677368e-06,9.69856538e-05,0.000221396407,0.000358288061,0.000498713247,0.000638379824
4.0,7.66095077e-06,9.7104897e-05,0.000221542846,0.000358464679,0.000498936367,0.000638672987
4.05,7.70578924e-06,9.72268516e-05,0.000221691058,0.000358640784,0.000499156372,0.000638960139
4.1,7.7513551e-06,9.73519424e-05,0.000221841583,0.000358816848,0.000499373628,0.000639241637
4.15,7.79771822e-06,9.74806252e-05,0.000221995013,0.000358993391,0.000499588527,0.000639517842
4.2,7.84495242e-06,9.76133881e-05,0.000222151996,0.000359170993,0.000499801504,0.000639789117
4.25,7.89313552e-06,9.77507524e-05,0.000222313235,0.000359350291,0.000500013035,0.000640055841
4.3,7.94234944e-06,9.78932735e-05,0.000222479496,0.000359531995,0.00050022365,0.000640318413
4.35,7.99268022e-06,9.80415415e-05,0.000222651606,0.000359716883,0.000500433935,0.000640577255
4.4,8.04421807e-06,9.81961822e-05,0.00022283046,0.000359905814,0.000500644543,0.000640832825
4.45,8.09705746e-06,9.83578572e-05,0.000223017018,0.000360099728,0.0005008562,0.000641085622
4.5,8.15129711e-06,9.85272651e-05,0.000223212315,0.000360299653,0.000501069709,0.000641336195
4.55,8.20704003e-06,9.87051411e-05,0.000223417456,0.000360506712,0.000501285965,0.000641585148
4.6,8.26439356e-06,9.8892258e-05,0.00022363362,0.000360722122,0.000501505956,0.000641833155
4.65,8.32346938e-06,9.9089426e-05,0.000223862065,0.000360947205,0.00050173077,0.000642080964
4.7,8.3843835e-06,9.9297493e-05,0.000224104124,0.000361183387,0.000501961608,0.000642329407
4.75,8.44725629e-06,9.95173446e-05,0.000224361212,0.000361432205,0.000502199786,0.000642579411
4.8,8.51221246e-06,9.97499039e-05,0.000224634821,0.000361695308,0.000502446744,0.000642832007
4.85,8.57938108e-06,9.99961316e-05,0.000224926527,0.000361974464,0.00050270405,0.000643088336
4.9,8.64889551e-06,0.000100257026,0.000225237986,0.000362271559,0.000502973412,0.000643349664
4.95,8.72089346e-06,0.000100533622,0.000225570937,0.000362588602,0.000503256677,0.000643617388
5.0,8.79551689e-06,0.00010082699,0.0002259272,0.000362927727,0.000503555841,0.000643893045
5.05,8.87291203e-06,0.00010113824,0.000226308677,0.000363291192,0.000503873054,0.000644178322
5.1,8.95322932e-06,0.000101468513,0.000226717355,0.000363681387,0.000504210623,0.000644475064
5.15,9.03662338e-06,0.000101818989,0.000227155298,0.000364100827,0.000504571019,0.000644785284
5.2,9.12325298e-06,0.00010219088,0.000227624654,0.000364552161,0.000504956878,0.00064511117
5.25,9.21328097e-06,0.000102585432,0.00022812765,0.000365038165,0.000505371006,0.000645455092
5.3,9.30687424e-06,0.000103003924,0.000228666592,0.000365561746,0.000505816381,0.000645819607
5.35,9.40420365e-06,0.000103447668,0.000229243863,0.000366125943,0.000506296157,0.000646207473
5.4,9.50544401e-06,0.000103918005,0.000229861922,0.000366733923,0.000506813664,0.000646621645
5.45,9.61077397e-06,0.000104416308,0.000230523305,0.000367388979,0.000507372411,0.000647065291
5.5,9.720376e-06,0.000104943979,0.000231230618,0.000368094536,0.000507976085,0.000647541786
5.55,9.83443627e-06,0.000105502446,0.000231986539,0.000368854139,0.000508628552,0.000648054725
5.6,9.95314464e-06,0.000106093168,0.000232793816,0.000369671459,0.000509333857,0.000648607921
5.65,1.00766946e-05,0.000106717627,0.000233655261,0.000370550287,0.000510096221,0.000649205411
5.7,1.0205283e-05,0.000107377331,0.000234573754,0.000371494531,0.000510920044,0.000649851455
5.75,1.03391103e-05,0.000108073811,0.000235552235,0.000372508215,0.000511809899,0.000650550541
5.8,1.04783802e-05,0.000108808623,0.000236593703,0.000373595474,0.000512770532,0.000651307382
5.85,1.06232998e-05,0.000109583341,0.000237701216,0.000374760553,0.000513806855,0.000652126918
5.9,1.07740792e-05,0.000110399562,0.000238877884,0.000376007798,0.000514923948,0.000653014313
5.95,1.09309319e-05,0.000111258902,0.00024012687,0.00037734166,0.000516127054,0.000653974958
6.0,1.10940743e-05,0.000112162993,0.000241451385,0.000378766682,0.000517421569,0.000655014463
6.05,1.12637255e-05,0.000113113486,0.000242854687,0.000380287503,0.000518813047,0.000656138658
6.1,1.14401079e-05,0.000114112046,0.000244340075,0.000381908845,0.000520307186,0.000657353588
6.15,1.16234464e-05,0.000115160353,0.000245910889,0.000383635517,0.000521909826,0.000658665507
6.2,1.18139686e-05,0.0001162601,0.000247570505,0.000385472403,0.000523626945,0.000660080876
6.25,1.20119049e-05,0.00011741299,0.000249322334,0.000387424462,0.00052546465,0.000661606357
6.3,1.22174879e-05,0.000118620741,0.000251169818,0.000389496719,0.000527429173,0.000663248804
6.35,1.24309529e-05,0.000119885075,0.000253116424,0.000391694263,0.000529526861,0.000665015261
6.4,1.26525375e-05,0.000121207728,0.000255165647,0.00039402224,0.000531764171,0.000666912948
6.45,1.28824814e-05,0.000122590438,0.000257321002,0.000396485849,0.000534147666,0.000668949262
6.5,1.31210268e-05,0.000124034953,0.000259586023,0.000399090335,0.000536683999,0.00067113176
6.55,1.33684175e-05,0.000125543023,0.000261964259,0.000401840984,0.000539379916,0.000673468158
6.6,1.36248997e-05,0.000127116403,0.000264459273,0.00040474312,0.000542242239,0.000675966315
