vds,vb1,vb2,vb3,vb4,vb5,vb6
0.0,-4.1239323000000004e-23,-7.90601573e-22,2.09518105e-22,-7.13721045e-22,2.4892342700000003e-21,-4.8459717599999994e-36
0.05,1.58789408e-07,8.7426287e-07,1.48800462e-06,1.98018688e-06,2.35096095e-06,2.61288758e-06
0.1,2.73326648e-07,1.70106789e-06,2.93151244e-06,3.91976992e-06,4.66556593e-06,5.19367265e-06
0.15,3.45318695e-07,2.48052425e-06,4.33063313e-06,5.81884818e-06,6.94389903e-06,7.74242397e-06
0.2,3.80754095e-07,3.21274179e-06,5.685476e-06,7.67752041e-06,9.1860441e-06,1.02592101e-05
0.25,3.93622846e-07,3.89783133e-06,6.99615005e-06,9.49588507e-06,1.13920847e-05,1.27440996e-05
0.3,3.97953699e-07,4.53590537e-06,8.26276396e-06,1.12740403e-05,1.35621043e-05,1.51971606e-05
0.35,3.99776737e-07,5.12707899e-06,9.48542607e-06,1.3012084e-05,1.5696186e-05,1.76184611e-05
0.4,4.00789879e-07,5.67147145e-06,1.06642444e-05,1.47101136e-05,1.77944127e-05,2.00080692e-05
0.45,4.01485519e-07,6.16920881e-06,1.17993268e-05,1.63682263e-05,1.98568671e-05,2.23660524e-05
0.5,4.02033956e-07,6.62042844e-06,1.28907805e-05,1.79865192e-05,2.18836316e-05,2.46924784e-05
0.55,4.02504802e-07,7.02528703e-06,1.39387127e-05,1.95650888e-05,2.38747883e-05,2.69874146e-05
0.6,4.02930561e-07,7.3839755e-06,1.49432303e-05,2.11040314e-05,2.58304192e-05,2.9250928e-05
0.65,4.03328065e-07,7.69674756e-06,1.59044398e-05,2.2603443e-05,2.77506061e-05,3.14830858e-05
0.7,4.03706774e-07,7.96397666e-06,1.68224477e-05,2.40634192e-05,2.96354304e-05,3.36839548e-05
0.75,4.04072362e-07,8.18627249e-06,1.76973603e-05,2.54840553e-05,3.14849733e-05,3.58536016e-05
0.8,4.04428423e-07,8.3647197e-06,1.85292835e-05,2.68654463e-05,3.32993158e-05,3.79920928e-05
0.85,4.04777336e-07,8.50133985e-06,1.93183237e-05,2.82076868e-05,3.50785386e-05,4.00994947e-05
0.9,4.05120735e-07,8.59983229e-06,2.00645873e-05,2.95108711e-05,3.68227222e-05,4.21758733e-05
0.95,4.0545978e-07,8.66626119e-06,2.07681813e-05,3.07750931e-05,3.85319469e-05,4.42212947e-05
1.0,4.05795316e-07,8.70868758e-06,2.14292137e-05,3.20004464e-05,4.02062926e-05,4.62358247e-05
1.05,4.06127975e-07,8.73526036e-06,2.20477941e-05,3.31870241e-05,4.18458391e-05,4.82195289e-05
1.1,4.0645824e-07,8.7522845e-06,2.26240352e-05,3.43349189e-05,4.34506657e-05,5.01724726e-05
1.15,4.06786484e-07,8.76376783e-06,2.31580544e-05,3.54442232e-05,4.50208518e-05,5.20947212e-05
1.2,4.07113003e-07,8.77200716e-06,2.36499773e-05,3.65150288e-05,4.65564762e-05,5.39863398e-05
1.25,4.07438035e-07,8.77828087e-06,2.40999428e-05,3.75474272e-05,4.80576176e-05,5.58473931e-05
1.3,4.07761773e-07,8.78331068e-06,2.4508113e-05,3.85415092e-05,4.95243544e-05,5.7677946e-05
1.35,4.08084373e-07,8.78751806e-06,2.48746898e-05,3.94973652e-05,5.09567646e-05,5.94780629e-05
1.4,4.08405969e-07,8.79115922e-06,2.51999444e-05,4.0415085e-05,5.2354926e-05,6.12478082e-05
1.45,4.0872667e-07,8.79439631e-06,2.5484272e-05,4.12947579e-05,5.37189162e-05,6.2987246e-05
1.5,4.09046569e-07,8.79733581e-06,2.5728287e-05,4.21364723e-05,5.50488121e-05,6.46964403e-05
1.55,4.09365747e-07,8.80005008e-06,2.59329896e-05,4.29403162e-05,5.63446908e-05,6.63754549e-05
1.6,4.09684271e-07,8.80258978e-06,2.61000273e-05,4.37063768e-05,5.76066285e-05,6.80243534e-05
1.65,4.10002201e-07,8.80499135e-06,2.62320366e-05,4.44347406e-05,5.88347015e-05,6.9643199e-05
1.7,4.10319588e-07,8.80728161e-06,2.63329273e-05,4.51254933e-05,6.00289853e-05,7.1232055e-05
1.75,4.10636478e-07,8.80948076e-06,2.64078218e-05,4.57787203e-05,6.11895554e-05,7.27909844e-05
1.8,4.10952911e-07,8.81160426e-06,2.64624518e-05,4.63945065e-05,6.23164866e-05,7.43200499e-05
1.85,4.11268922e-07,8.81366417e-06,2.65022472e-05,4.69729372e-05,6.34098531e-05,7.5819314e-05
1.9,4.11584543e-07,8.81567001e-06,2.65316497e-05,4.75140988e-05,6.44697289e-05,7.72888392e-05
1.95,4.11899803e-07,8.81762946e-06,2.65539199e-05,4.80180805e-05,6.54961873e-05,7.87286874e-05
2.0,4.12214729e-07,8.8195487e-06,2.65712993e-05,4.84849774e-05,6.64893008e-05,8.01389206e-05
2.05,4.12529345e-07,8.82143285e-06,2.65852826e-05,4.89148958e-05,6.74491415e-05,8.15196003e-05
2.1,4.12843676e-07,8.82328613e-06,2.65968609e-05,4.93079628e-05,6.83757805e-05,8.2870788e-05
2.15,4.13157745e-07,8.82511208e-06,2.66066972e-05,4.96643422e-05,6.92692883e-05,8.41925447e-05
2.2,4.13471578e-07,8.82691369e-06,2.66152423e-05,4.99842636e-05,7.01297341e-05,8.54849313e-05
2.25,4.13785201e-07,8.82869349e-06,2.66228094e-05,5.02680709e-05,7.09571864e-05,8.67480082e-05
2.3,4.14098645e-07,8.83045367e-06,2.66296202e-05,5.05163032e-05,7.17517121e-05,8.79818358e-05
2.35,4.14411944e-07,8.8321961e-06,2.66358353e-05,5.07298206e-05,7.25133771e-05,8.91864739e-05
2.4,4.14725138e-07,8.83392241e-06,2.66415733e-05,5.09099791e-05,7.32422455e-05,9.03619821e-05
2.45,4.15038278e-07,8.83563403e-06,2.66469234e-05,5.10588294e-05,7.39383796e-05,9.15084196e-05
2.5,4.15351424e-07,8.8373322e-06,2.66519537e-05,5.11792582e-05,7.46018399e-05,9.26258451e-05
2.55,4.1566465e-07,8.83901802e-06,2.66567171e-05,5.12749479e-05,7.52326846e-05,9.3714317e-05
2.6,4.15978045e-07,8.84069248e-06,2.66612554e-05,5.13500786e-05,7.58309694e-05,9.47738932e-05
2.65,4.16291719e-07,8.84235645e-06,2.66656018e-05,5.1408856e-05,7.63967479e-05,9.5804631e-05
2.7,4.16605807e-07,8.84401073e-06,2.66697833e-05,5.14550687e-05,7.6930071e-05,9.68065871e-05
2.75,4.16920467e-07,8.84565605e-06,2.66738218e-05,5.14918384e-05,7.7430988e-05,9.77798177e-05
2.8,4.17235893e-07,8.84729308e-06,2.66777353e-05,5.15215784e-05,7.78995476e-05,9.87243783e-05
2.85,4.17552313e-07,8.84892248e-06,2.66815391e-05,5.15460825e-05,7.83358004e-05,9.96403235e-05
2.9,4.17869997e-07,8.85054488e-06,2.66852456e-05,5.15666573e-05,7.8739804e-05,0.000100527707
2.95,4.18189262e-07,8.85216092e-06,2.66888657e-05,5.15842485e-05,7.91116319e-05,0.000101386582
3.0,4.18510476e-07,8.85377128e-06,2.66924085e-05,5.15995426e-05,7.94513892e-05,0.000102216999
3.05,4.18834067e-07,8.8553767e-06,2.66958817e-05,5.16130425e-05,7.97592395e-05,0.000103019009
3.1,4.19160524e-07,8.85697803e-06,2.66992921e-05,5.16251204e-05,8.0035449e-05,0.000103792661
3.15,4.19490406e-07,8.85857622e-06,2.67026456e-05,5.16360555e-05,8.02804554e-05,0.000104538002
3.2,4.19824351e-07,8.86017244e-06,2.67059473e-05,5.16460604e-05,8.04949663e-05,0.000105255077
3.25,4.20163074e-07,8.86176806e-06,2.67092016e-05,5.16552986e-05,8.0680084e-05,0.000105943929
3.3,4.20507382e-07,8.86336476e-06,2.67124126e-05,5.1663898e-05,8.08374319e-05,0.000106604598
3.35,4.20858175e-07,8.86496454e-06,2.67155838e-05,5.16719595e-05,8.09692308e-05,0.000107237121
3.4,4.21216454e-07,8.86656985e-06,2.67187182e-05,5.16795639e-05,8.1078264e-05,0.000107841533
3.45,4.21583325e-07,8.86818362e-06,2.67218188e-05,5.16867765e-05,8.11676982e-05,0.000108417862
3.5,4.21960009e-07,8.86980938e-06,2.67248881e-05,5.16936504e-05,8.12408054e-05,0.000108966134
3.55,4.22347843e-07,8.87145134e-06,2.67279285e-05,5.17002295e-05,8.13006795e-05,0.00010948637
3.6,4.22748288e-07,8.87311445e-06,2.67309422e-05,5.17065504e-05,8.13500368e-05,0.000109978585
3.65,4.23162935e-07,8.87480458e-06,2.67339313e-05,5.17126435e-05,8.13911307e-05,0.00011044279
3.7,4.23593509e-07,8.87652856e-06,2.67368981e-05,5.17185347e-05,8.14257582e-05,0.00011087899
3.75,4.24041872e-07,8.87829433e-06,2.67398447e-05,5.17242459e-05,8.14553169e-05,0.000111287189
3.8,4.24510032e-07,8.88011106e-06,2.67427735e-05,5.17297958e-05,8.14808802e-05,0.000111667393
3.85,4.25000142e-07,8.88198925e-06,2.6745687e-05,5.17352006e-05,8.15032683e-05,0.000112019618
3.9,4.25514507e-07,8.88394086e-06,2.67485882e-05,5.17404743e-05,8.15231089e-05,0.000112343904
3.95,4.26055586e-07,8.88597945e-06,2.67514805e-05,5.1745629e-05,8.15408848e-05,0.00011264034
4.0,4.26625997e-07,8.8881203e-06,2.67543679e-05,5.17506754e-05,8.15569698e-05,0.000112909102
4.05,4.27228517e-07,8.89038052e-06,2.67572554e-05,5.17556229e-05,8.15716565e-05,0.000113150506
4.1,4.27866086e-07,8.8927792e-06,2.67601487e-05,5.17604798e-05,8.15851752e-05,0.000113365087
4.15,4.28541808e-07,8.89533753e-06,2.67630548e-05,5.17652534e-05,8.15977097e-05,0.000113553687
4.2,4.29258954e-07,8.89807888e-06,2.67659822e-05,5.17699502e-05,8.16094076e-05,0.000113717544
4.25,4.3002096e-07,8.90102899e-06,2.67689411e-05,5.17745763e-05,8.16203887e-05,0.000113858339
4.3,4.30831432e-07,8.90421601e-06,2.67719433e-05,5.17791369e-05,8.16307509e-05,0.000113978176
4.35,4.31694144e-07,8.90767068e-06,2.67750033e-05,5.17836372e-05,8.16405753e-05,0.000114079479
4.4,4.32613037e-07,8.91142637e-06,2.67781378e-05,5.17880818e-05,8.1649929e-05,0.000114164818
4.45,4.33592221e-07,8.91551921e-06,2.67813665e-05,5.17924751e-05,8.16588686e-05,0.000114236719
4.5,4.34635974e-07,8.91998818e-06,2.67847122e-05,5.17968216e-05,8.16674416e-05,0.000114297507
4.55,4.35748739e-07,8.92487518e-06,2.67882013e-05,5.18011258e-05,8.16756886e-05,0.000114349217
4.6,4.36935123e-07,8.93022514e-06,2.67918642e-05,5.18053926e-05,8.16836441e-05,0.000114393559
4.65,4.381999e-07,8.93608605e-06,2.67957355e-05,5.18096271e-05,8.16913379e-05,0.000114431933
4.7,4.39548001e-07,8.94250904e-06,2.67998543e-05,5.18138354e-05,8.16987957e-05,0.000114465464
4.75,4.40984519e-07,8.94954844e-06,2.6804265e-05,5.18180241e-05,8.17060398e-05,0.000114495048
4.8,4.42514703e-07,8.95726181e-06,2.68090173e-05,5.18222015e-05,8.171309e-05,0.000114521397
4.85,4.44143957e-07,8.96571e-06,2.68141665e-05,5.18263771e-05,8.17199631e-05,0.000114545075
4.9,4.45877833e-07,8.97495716e-06,2.68197744e-05,5.18305623e-05,8.17266745e-05,0.000114566532
4.95,4.47722034e-07,8.98507078e-06,2.68259092e-05,5.1834771e-05,8.17332376e-05,0.000114586125
5.0,4.49682406e-07,8.99612166e-06,2.68326458e-05,5.18390197e-05,8.17396641e-05,0.000114604146
5.05,4.51764936e-07,9.00818399e-06,2.68400664e-05,5.18433282e-05,8.1745965e-05,0.000114620828
5.1,4.53975748e-07,9.02133527e-06,2.6848261e-05,5.184772e-05,8.17521498e-05,0.000114636363
5.15,4.56321101e-07,9.03565637e-06,2.68573272e-05,5.18522229e-05,8.17582274e-05,0.000114650907
5.2,4.5880738e-07,9.05123144e-06,2.68673708e-05,5.18568696e-05,8.17642059e-05,0.000114664592
5.25,4.61441098e-07,9.06814796e-06,2.68785061e-05,5.18616985e-05,8.17700931e-05,0.000114677525
5.3,4.64228887e-07,9.08649665e-06,2.68908561e-05,5.18667539e-05,8.17758962e-05,0.000114689797
5.35,4.67177497e-07,9.10637147e-06,2.69045528e-05,5.18720871e-05,8.17816227e-05,0.000114701486
5.4,4.70293789e-07,9.12786954e-06,2.69197371e-05,5.18777571e-05,8.178728e-05,0.000114712657
5.45,4.73584731e-07,9.15109114e-06,2.69365596e-05,5.1883831e-05,8.17928761e-05,0.000114723365
5.5,4.77057395e-07,9.1761396e-06,2.69551801e-05,5.18903848e-05,8.17984196e-05,0.000114733658
5.55,4.80718951e-07,9.20312128e-06,2.69757682e-05,5.18975045e-05,8.18039203e-05,0.000114743579
5.6,4.84576662e-07,9.23214549e-06,2.69985032e-05,5.19052864e-05,8.18093895e-05,0.000114753163
5.65,4.8863788e-07,9.26332441e-06,2.70235743e-05,5.1913838e-05,8.18148405e-05,0.000114762441
5.7,4.92910042e-07,9.29677302e-06,2.70511807e-05,5.19232788e-05,8.18202891e-05,0.000114771441
5.75,4.97400665e-07,9.33260903e-06,2.70815315e-05,5.19337406e-05,8.18257541e-05,0.000114780188
5.8,5.02117339e-07,9.3709528e-06,2.71148457e-05,5.19453689e-05,8.18312581e-05,0.000114788702
5.85,5.07067725e-07,9.41192724e-06,2.71513524e-05,5.19583229e-05,8.18368282e-05,0.000114797003
5.9,5.12259549e-07,9.45565771e-06,2.71912906e-05,5.19727765e-05,8.18424966e-05,0.000114805108
5.95,5.17700601e-07,9.50227199e-06,2.72349093e-05,5.19889186e-05,8.18483015e-05,0.000114813031
6.0,5.23398722e-07,9.55190011e-06,2.72824673e-05,5.20069541e-05,8.18542881e-05,0.000114820788
6.05,5.29361809e-07,9.60467429e-06,2.73342331e-05,5.20271041e-05,8.18605096e-05,0.00011482839
6.1,5.35597804e-07,9.66072886e-06,2.73904849e-05,5.20496065e-05,8.18670278e-05,0.000114835849
6.15,5.42114694e-07,9.72020012e-06,2.74515102e-05,5.20747163e-05,8.18739147e-05,0.000114843177
6.2,5.48920502e-07,9.78322629e-06,2.75176062e-05,5.21027064e-05,8.1881253e-05,0.000114850384
6.25,5.56023286e-07,9.84994736e-06,2.75890789e-05,5.21338675e-05,8.18891377e-05,0.00011485748
6.3,5.63431135e-07,9.92050502e-06,2.76662436e-05,5.21685088e-05,8.18976769e-05,0.000114864476
6.35,5.71152161e-07,9.99504256e-06,2.77494242e-05,5.22069579e-05,8.1906993e-05,0.000114871384
6.4,5.79194502e-07,1.00737048e-05,2.78389533e-05,5.22495614e-05,8.1917224e-05,0.000114878216
6.45,5.87566309e-07,1.01566378e-05,2.79351717e-05,5.22966848e-05,8.19285246e-05,0.000114884987
6.5,5.9627575e-07,1.0243989e-05,2.80384285e-05,5.23487128e-05,8.19410671e-05,0.000114891713
6.55,6.05331e-07,1.03359072e-05,2.81490805e-05,5.24060492e-05,8.19550428e-05,0.000114898412
6.6,6.14740244e-07,1.0432542e-05,2.82674921e-05,5.2469117e-05,8.19706632e-05,0.000114905108
