vds,vb1,vb2,vb3,vb4,vb5,vb6
0.0,1.2146449000000002e-37,8.478437580000001e-21,8.669927070000001e-21,2.66711908e-36,-7.719127800000001e-21,-9.37688259e-20
0.05,2.93572424e-06,1.37110391e-05,2.09992578e-05,2.62553892e-05,2.99579309e-05,3.24595376e-05
0.1,4.819474e-06,2.62945921e-05,4.08685894e-05,5.14194401e-05,5.88930553e-05,6.39795246e-05
0.15,5.82846051e-06,3.77843387e-05,5.96390963e-05,7.55186943e-05,8.68271321e-05,9.4577473e-05
0.2,6.33968396e-06,4.82129156e-05,7.73409907e-05,9.85791009e-05,0.000113781545,0.000124270658
0.25,6.66935829e-06,5.76118175e-05,9.40034238e-05,0.000120625882,0.00013977721,0.000153076058
0.3,6.92904246e-06,6.60114143e-05,0.000109654369,0.000141683429,0.000164834509,0.000181010313
0.35,7.1520736e-06,7.34409939e-05,0.000124320545,0.000161775196,0.000188973199,0.000208089672
0.4,7.35188712e-06,7.99287106e-05,0.000138027397,0.000180923628,0.000212212344,0.000234329934
0.45,7.53544896e-06,8.55013492e-05,0.000150799123,0.00019915013,0.000234570254,0.000259746397
0.5,7.70694006e-06,9.01846594e-05,0.000162658688,0.000216475084,0.000256064449,0.000284353817
0.55,7.8691017e-06,9.40090863e-05,0.000173627732,0.000232917903,0.000276711659,0.000308166383
0.6,8.02384004e-06,9.70324288e-05,0.000183726234,0.000248497109,0.000296527846,0.000331197699
0.65,8.17253801e-06,9.93713422e-05,0.000192971674,0.000263230405,0.000315528255,0.000353460792
0.7,8.31623201e-06,0.000101188162,0.000201377324,0.000277134711,0.000333727479,0.000374968136
0.75,8.45571911e-06,0.000102635485,0.000208949193,0.000290226112,0.000351139538,0.00039573168
0.8,8.59162546e-06,0.000103825566,0.000215681725,0.000302519634,0.000367777958,0.000415762906
0.85,8.72445176e-06,0.000104833121,0.000221555554,0.000314028755,0.000383655827,0.00043507288
0.9,8.85460455e-06,0.000105707087,0.000226548355,0.000324764444,0.000398785817,0.000453672312
0.95,8.98241823e-06,0.000106480138,0.000230670371,0.000334733468,0.000413180152,0.000471571619
1.0,9.10817109e-06,0.00010717476,0.000234001805,0.000343935584,0.00042685047,0.000488780976
1.05,9.23209705e-06,0.000107806915,0.000236682796,0.000352359424,0.00043980754,0.000505310355
1.1,9.35439452e-06,0.000108388267,0.000238864959,0.000359978075,0.000452060744,0.000521169537
1.15,9.47523317e-06,0.000108927562,0.000240675773,0.000366749042,0.000463617189,0.00053636809
1.2,9.59475914e-06,0.000109431511,0.000242210222,0.000372628681,0.000474480268,0.000550915293
1.25,9.71309913e-06,0.00010990536,0.000243535957,0.000377606532,0.000484647396,0.000564819986
1.3,9.83036365e-06,0.000110353286,0.000244700862,0.000381738077,0.000494106736,0.000578090296
1.35,9.94664963e-06,0.000110778665,0.000245739222,0.000385140495,0.000502833241,0.000590733199
1.4,1.00620425e-05,0.000111184262,0.000246676033,0.000387955193,0.000510786044,0.000602753817
1.45,1.0176618e-05,0.000111572366,0.000247529897,0.000390312993,0.000517912616,0.000614154329
1.5,1.02904433e-05,0.000111944898,0.000248314931,0.000392319392,0.000524166963,0.000624932324
1.55,1.04035785e-05,0.00011230348,0.000249042054,0.00039405419,0.000529540317,0.000635078425
1.6,1.05160776e-05,0.000112649496,0.000249719851,0.000395576392,0.000534083465,0.000644573214
1.65,1.06279888e-05,0.000112984136,0.000250355179,0.000396929569,0.000537899257,0.000653384194
1.7,1.0739356e-05,0.00011330843,0.000250953592,0.00039814619,0.000541112829,0.000661465204
1.75,1.08502186e-05,0.000113623277,0.000251519644,0.00039925079,0.000543843968,0.000668762956
1.8,1.09606125e-05,0.000113929461,0.000252057109,0.000400262193,0.000546193525,0.00067523481
1.85,1.10705703e-05,0.000114227677,0.00025256915,0.000401195064,0.000548241054,0.000680873363
1.9,1.11801219e-05,0.000114518538,0.000253058442,0.000402061001,0.000550047562,0.0006857216
1.95,1.12892945e-05,0.000114802591,0.000253527261,0.000402869301,0.000551659479,0.000689865859
2.0,1.13981131e-05,0.000115080322,0.000253977568,0.000403627509,0.000553112263,0.000693413244
2.05,1.15066007e-05,0.000115352171,0.000254411053,0.000404341823,0.000554433237,0.000696469871
2.1,1.16147785e-05,0.000115618531,0.000254829192,0.00040501739,0.000555643698,0.000699128649
2.15,1.17226662e-05,0.000115879759,0.000255233274,0.000405658519,0.000556760458,0.000701465673
2.2,1.18302819e-05,0.000116136177,0.000255624435,0.000406268857,0.000557796948,0.000703541255
2.25,1.19376429e-05,0.000116388079,0.000256003681,0.000406851511,0.000558764028,0.000705402595
2.3,1.20447651e-05,0.000116635733,0.000256371904,0.000407409149,0.000559670579,0.000707086584
2.35,1.21516636e-05,0.000116879385,0.000256729902,0.000407944078,0.000560523937,0.000708622196
2.4,1.22583529e-05,0.000117119258,0.000257078389,0.000408458306,0.000561330225,0.000710032376
2.45,1.23648469e-05,0.000117355561,0.000257418008,0.000408953588,0.000562094593,0.00071133547
2.5,1.24711591e-05,0.000117588484,0.00025774934,0.00040943147,0.000562821415,0.0007125463
2.55,1.25773028e-05,0.000117818205,0.00025807291,0.000409893317,0.000563514429,0.00071367696
2.6,1.26832915e-05,0.000118044888,0.000258389197,0.000410340344,0.000564176854,0.000714737417
2.65,1.27891385e-05,0.000118268686,0.000258698635,0.000410773631,0.000564811479,0.000715735961
2.7,1.28948578e-05,0.000118489746,0.000259001623,0.000411194149,0.000565420737,0.000716679549
2.75,1.30004637e-05,0.000118708202,0.000259298526,0.000411602768,0.000566006761,0.000717574063
2.8,1.31059716e-05,0.000118924187,0.000259589681,0.000412000275,0.000566571429,0.000718424519
2.85,1.32113978e-05,0.000119137823,0.000259875398,0.000412387382,0.000567116404,0.000719235222
2.9,1.33167597e-05,0.000119349233,0.000260155966,0.000412764734,0.000567643166,0.000720009891
2.95,1.34220767e-05,0.000119558535,0.000260431654,0.000413132921,0.000568153036,0.000720751759
3.0,1.35273695e-05,0.000119765848,0.000260702713,0.000413492481,0.000568647198,0.000721463651
3.05,1.36326612e-05,0.000119971288,0.000260969382,0.000413843907,0.000569126719,0.000722148052
3.1,1.37379772e-05,0.000120174977,0.000261231886,0.000414187654,0.00056959256,0.000722807153
3.15,1.38433456e-05,0.000120377039,0.000261490442,0.000414524142,0.000570045593,0.000723442901
3.2,1.39487973e-05,0.000120577604,0.000261745263,0.000414853759,0.000570486611,0.000724057029
3.25,1.40543667e-05,0.000120776806,0.000261996554,0.00041517687,0.000570916336,0.000724651087
3.3,1.41600916e-05,0.000120974793,0.000262244523,0.000415493817,0.00057133543,0.000725226466
3.35,1.4266014e-05,0.000121171719,0.000262489378,0.000415804921,0.000571744498,0.000725784422
3.4,1.43721798e-05,0.000121367752,0.000262731331,0.000416110493,0.000572144101,0.000726326088
3.45,1.44786397e-05,0.000121563077,0.000262970604,0.00041641083,0.000572534755,0.000726852493
3.5,1.45854492e-05,0.000121757892,0.000263207431,0.000416706222,0.000572916941,0.000727364572
3.55,1.4692669e-05,0.000121952415,0.000263442059,0.000416996957,0.00057329111,0.00072786318
3.6,1.48003653e-05,0.000122146884,0.000263674753,0.000417283325,0.000573657685,0.0007283491
3.65,1.49086103e-05,0.000122341558,0.000263905802,0.00041756562,0.000574017068,0.00072882305
3.7,1.50174822e-05,0.000122536724,0.000264135519,0.000417844147,0.000574369647,0.000729285694
3.75,1.51270658e-05,0.000122732692,0.000264364249,0.000418119226,0.000574715795,0.000729737646
3.8,1.52374525e-05,0.000122929801,0.000264592368,0.000418391197,0.000575055883,0.00073017948
3.85,1.53487409e-05,0.000123128422,0.000264820293,0.000418660426,0.000575390277,0.000730611732
3.9,1.54610369e-05,0.000123328955,0.000265048479,0.000418927308,0.000575719351,0.000731034909
3.95,1.5574454e-05,0.000123531838,0.00026527743,0.000419192277,0.000576043488,0.000731449494
4.0,1.56891135e-05,0.00012373754,0.000265507699,0.000419455806,0.000576363089,0.000731855952
4.05,1.5805145e-05,0.00012394657,0.000265739893,0.00041971842,0.000576678578,0.000732254736
4.1,1.59226863e-05,0.000124159477,0.000265974677,0.000419980698,0.000576990409,0.000732646296
4.15,1.60418839e-05,0.000124376847,0.000266212779,0.000420243278,0.000577299076,0.00073303108
4.2,1.61628928e-05,0.000124599311,0.000266454991,0.000420506866,0.000577605115,0.000733409548
4.25,1.62858775e-05,0.000124827542,0.000266702178,0.000420772244,0.000577909118,0.000733782173
4.3,1.64110111e-05,0.000125062255,0.000266955275,0.000421040271,0.000578211736,0.000734149454
4.35,1.65384764e-05,0.000125304215,0.000267215294,0.000421311894,0.00057851369,0.000734511923
4.4,1.66684656e-05,0.000125554228,0.000267483328,0.000421588152,0.000578815781,0.000734870151
4.45,1.68011805e-05,0.000125813152,0.000267760552,0.000421870184,0.000579118893,0.00073522476
4.5,1.69368326e-05,0.00012608189,0.000268048228,0.00042215923,0.000579424008,0.000735576432
4.55,1.70756435e-05,0.000126361394,0.000268347705,0.000422456646,0.000579732211,0.00073592592
4.6,1.72178443e-05,0.000126652666,0.000268660423,0.000422763898,0.0005800447,0.000736274055
4.65,1.73636765e-05,0.000126956756,0.000268987913,0.000423082576,0.000580362793,0.000736621761
4.7,1.75133916e-05,0.000127274764,0.000269331805,0.000423414395,0.000580687938,0.000736970061
4.75,1.76672512e-05,0.00012760784,0.000269693819,0.000423761203,0.000581021722,0.000737320092
4.8,1.78255273e-05,0.000127957184,0.000270075779,0.000424124978,0.000581365877,0.000737673113
4.85,1.79885018e-05,0.000128324044,0.000270479601,0.000424507839,0.000581722288,0.000738030519
4.9,1.8156467e-05,0.000128709721,0.000270907306,0.000424912049,0.000582093002,0.000738393848
4.95,1.83297256e-05,0.000129115561,0.000271361011,0.000425340012,0.000582480232,0.000738764797
5.0,1.85085901e-05,0.000129542961,0.000271842935,0.000425794281,0.000582886366,0.000739145227
5.05,1.86933836e-05,0.000129993365,0.000272355395,0.000426277562,0.000583313974,0.000739537177
5.1,1.8884439e-05,0.000130468267,0.00027290081,0.000426792707,0.000583765808,0.000739942873
5.15,1.90820995e-05,0.000130969204,0.000273481696,0.000427342725,0.000584244814,0.000740364739
5.2,1.92867182e-05,0.000131497763,0.000274100668,0.000427930777,0.000584754132,0.000740805401
5.25,1.94986583e-05,0.000132055572,0.00027476044,0.000428560178,0.0005852971,0.000741267703
5.3,1.97182929e-05,0.000132644307,0.000275463819,0.000429234397,0.000585877259,0.00074175471
5.35,1.99460046e-05,0.000133265685,0.000276213708,0.000429957057,0.000586498354,0.000742269716
5.4,2.01821859e-05,0.000133921466,0.000277013103,0.000430731933,0.000587164337,0.000742816253
5.45,2.0427239e-05,0.00013461345,0.000277865089,0.000431562951,0.000587879367,0.000743398094
5.5,2.06815753e-05,0.000135343476,0.000278772842,0.000432454185,0.000588647812,0.000744019259
5.55,2.09456156e-05,0.000136113424,0.000279739622,0.00043340986,0.000589474248,0.000744684022
5.6,2.121979e-05,0.000136925209,0.000280768775,0.000434434342,0.000590363458,0.000745396911
5.65,2.15045377e-05,0.000137780781,0.000281863725,0.000435532138,0.000591320433,0.000746162711
5.7,2.18003065e-05,0.000138682126,0.000283027976,0.000436707897,0.000592350366,0.000746986471
5.75,2.21075533e-05,0.000139631262,0.000284265108,0.000437966398,0.000593458653,0.000747873499
5.8,2.24267434e-05,0.000140630238,0.000285578772,0.000439312553,0.000594650888,0.000748829363
5.85,2.27583507e-05,0.000141681132,0.000286972687,0.0004407514,0.000595932861,0.000749859893
5.9,2.31028573e-05,0.000142786053,0.000288450639,0.000442288096,0.000597310549,0.00075097118
5.95,2.34607533e-05,0.000143947133,0.000290016476,0.000443927919,0.000598790118,0.00075216957
6.0,2.38325368e-05,0.000145166531,0.000291674104,0.000445676254,0.000600377913,0.000753461661
6.05,2.42187138e-05,0.00014644643,0.000293427484,0.000447538595,0.000602080452,0.000754854304
6.1,2.46197975e-05,0.000147789034,0.000295280629,0.000449520533,0.000603904421,0.000756354591
6.15,2.50363088e-05,0.000149196566,0.000297237597,0.000451627758,0.000605856669,0.000757969857
6.2,2.54687757e-05,0.00015067127,0.000299302494,0.000453866044,0.000607944195,0.000759707665
6.25,2.5917733e-05,0.000152215407,0.000301479462,0.000456241252,0.000610174147,0.000761575807
6.3,2.63837227e-05,0.00015383125,0.000303772683,0.000458759316,0.00061255381,0.00076358229
6.35,2.6867293e-05,0.00015552109,0.000306186368,0.000461426242,0.000615090598,0.000765735333
6.4,2.73689986e-05,0.000157287229,0.00030872476,0.000464248097,0.000617792048,0.000768043353
6.45,2.78894007e-05,0.000159131978,0.000311392123,0.000467231008,0.000620665808,0.000770514957
6.5,2.84290662e-05,0.000161057659,0.000314192745,0.000470381151,0.000623719629,0.000773158934
6.55,2.89885678e-05,0.000163066603,0.00031713093,0.000473704745,0.000626961357,0.00077598424
6.6,2.95684841e-05,0.000165161143,0.000320210997,0.00047720805,0.000630398922,0.000778999993
