vds,vb1,vb2,vb3,vb4,vb5,vb6
0.0,-2.8256942700000003e-27,-2.29738946e-27,6.211019260000001e-25,-1.43895865e-24,-3.1512704999999997e-24,-8.80846946e-25
0.05,3.05806104e-06,9.41606423e-06,1.46618198e-05,1.87922117e-05,2.18909881e-05,2.41017296e-05
0.1,5.54333175e-06,1.82424876e-05,2.87585169e-05,3.70532764e-05,4.32883229e-05,4.7747567e-05
0.15,7.56983452e-06,2.65913654e-05,4.24012985e-05,5.48935838e-05,6.43017028e-05,7.10466606e-05
0.2,9.17015719e-06,3.44925886e-05,5.56197968e-05,7.23424449e-05,8.49601182e-05,9.40277137e-05
0.25,1.03601572e-05,4.19552602e-05,6.84229348e-05,8.94085294e-05,0.00010527197,0.000116698877
0.3,1.11622978e-05,4.8983228e-05,8.0814375e-05,0.00010609525,0.000125240406,0.000139063052
0.35,1.16282538e-05,5.55790134e-05,9.27964387e-05,0.000122404677,0.000144867229,0.000161121794
0.4,1.18573412e-05,6.17448075e-05,0.0001043711,0.000138338531,0.000164153896,0.000182876314
0.45,1.19626928e-05,6.74827291e-05,0.000115540236,0.000153898441,0.00018310177,0.000204327729
0.5,1.20158617e-05,7.27948995e-05,0.000126305694,0.000169086002,0.000201712186,0.00022547713
0.55,1.20474325e-05,7.76834767e-05,0.000136669306,0.000183902798,0.000219986466,0.000246325598
0.6,1.20691317e-05,8.21506892e-05,0.00014663289,0.000198350401,0.000237925925,0.000266874207
0.65,1.20857356e-05,8.61988888e-05,0.000156198258,0.000212430377,0.000255531871,0.000287124026
0.7,1.20994117e-05,8.98306407e-05,0.00016536721,0.00022614428,0.000272805605,0.00030707612
0.75,1.2111253e-05,9.30488882e-05,0.000174141538,0.000239493658,0.000289748423,0.000326731549
0.8,1.21218627e-05,9.58572643e-05,0.000182523026,0.00025248005,0.000306361613,0.000346091367
0.85,1.21315996e-05,9.82606988e-05,0.000190513448,0.000265104987,0.000322646458,0.000365156625
0.9,1.21406903e-05,0.000100266619,0.000198114573,0.000277369991,0.000338604234,0.000383928369
0.95,1.21492856e-05,0.000101887282,0.000205328161,0.000289276576,0.00035423621,0.000402407639
1.0,1.21574901e-05,0.000103143916,0.000212155971,0.000300826247,0.000369543651,0.000420595474
1.05,1.21653787e-05,0.000104072429,0.000218599755,0.000312020502,0.000384527814,0.000438492903
1.1,1.21730071e-05,0.000104727016,0.000224661268,0.000322860829,0.00039918995,0.000456100956
1.15,1.21804174e-05,0.000105174743,0.000230342271,0.000333348707,0.000413531303,0.000473420654
1.2,1.21876425e-05,0.000105480812,0.000235644538,0.000343485609,0.000427553112,0.000490453017
1.25,1.21947081e-05,0.000105695973,0.000240569873,0.000353272994,0.00044125661,0.000507199057
1.3,1.22016351e-05,0.00010585399,0.000245120127,0.000362712318,0.000454643022,0.000523659784
1.35,1.22084404e-05,0.000105975595,0.000249297245,0.000371805022,0.000467713568,0.000539836203
1.4,1.22151381e-05,0.000106073246,0.000253103329,0.00038055254,0.00048046946,0.000555729313
1.45,1.22217399e-05,0.000106154531,0.00025654076,0.000388956296,0.000492911907,0.000571340112
1.5,1.22282557e-05,0.000106224204,0.000259612426,0.000397017701,0.000505042107,0.000586669589
1.55,1.22346939e-05,0.000106285351,0.000262322121,0.000404738158,0.000516861254,0.000601718731
1.6,1.22410617e-05,0.000106340046,0.000264675288,0.000412119055,0.000528370535,0.000616488521
1.65,1.22473654e-05,0.000106389727,0.000266680298,0.000419161768,0.000539571131,0.000630979936
1.7,1.22536104e-05,0.000106435422,0.000268350518,0.000425867658,0.000550464213,0.000645193948
1.75,1.22598016e-05,0.000106477886,0.000269707045,0.000432238072,0.000561050947,0.000659131528
1.8,1.22659431e-05,0.000106517685,0.000270781128,0.00043827434,0.000571332492,0.000672793637
1.85,1.22720388e-05,0.000106555253,0.000271614081,0.000443977772,0.000581309998,0.000686181236
1.9,1.22780919e-05,0.000106590931,0.000272253058,0.000449349664,0.000590984606,0.000699295279
1.95,1.22841053e-05,0.000106624987,0.000272744132,0.000454391292,0.000600357451,0.000712136716
2.0,1.22900819e-05,0.000106657638,0.000273126551,0.00045910392,0.000609429656,0.000724706492
2.05,1.22960239e-05,0.000106689062,0.000273430518,0.00046348881,0.000618202336,0.000737005548
2.1,1.23019337e-05,0.000106719405,0.000273677853,0.000467547244,0.000626676593,0.000749034818
2.15,1.23078132e-05,0.000106748788,0.000273883852,0.000471280575,0.00063485352,0.000760795233
2.2,1.23136643e-05,0.000106777316,0.000274059151,0.000474690319,0.000642734195,0.000772287718
2.25,1.23194888e-05,0.000106805073,0.000274211197,0.000477778336,0.000650319683,0.000783513194
2.3,1.23252882e-05,0.000106832137,0.000274345271,0.000480547166,0.000657611029,0.000794472574
2.35,1.23310643e-05,0.000106858571,0.000274465189,0.000483000622,0.000664609262,0.000805166767
2.4,1.23368186e-05,0.000106884431,0.000274573756,0.000485144773,0.000671315389,0.000815596678
2.45,1.23425526e-05,0.000106909766,0.000274673076,0.000486989406,0.000677730389,0.000825763202
2.5,1.23482682e-05,0.000106934619,0.00027476475,0.000488549814,0.000683855214,0.000835667229
2.55,1.2353967e-05,0.000106959028,0.000274850022,0.000489848278,0.000689690776,0.000845309644
2.6,1.23596512e-05,0.000106983027,0.000274929868,0.000490914184,0.000695237951,0.000854691323
2.65,1.23653229e-05,0.000107006645,0.00027500507,0.000491781982,0.000700497559,0.000863813135
2.7,1.23709847e-05,0.00010702991,0.000275076257,0.000492487468,0.000705470366,0.000872675938
2.75,1.23766398e-05,0.000107052847,0.000275143944,0.000493063986,0.000710157072,0.000881280583
2.8,1.23822915e-05,0.000107075476,0.000275208557,0.000493539999,0.0007145583,0.000889627911
2.85,1.23879441e-05,0.000107097817,0.000275270451,0.000493938328,0.000718674603,0.000897718749
2.9,1.23936025e-05,0.00010711989,0.000275329926,0.000494276575,0.000722506469,0.000905553914
2.95,1.23992725e-05,0.000107141711,0.000275387235,0.000494568038,0.000726054362,0.000913134206
3.0,1.24049608e-05,0.000107163296,0.000275442594,0.000494822693,0.000729318812,0.00092046041
3.05,1.24106754e-05,0.000107184661,0.000275496192,0.000495048033,0.000732300602,0.000927533288
3.1,1.24164254e-05,0.00010720582,0.000275548188,0.000495249725,0.00073500111,0.000934353585
3.15,1.24222216e-05,0.000107226788,0.000275598725,0.000495432097,0.000737422902,0.000940922014
3.2,1.24280762e-05,0.00010724758,0.000275647927,0.000495598494,0.00073957064,0.000947239259
3.25,1.24340034e-05,0.000107268213,0.000275695901,0.000495751528,0.000741452292,0.000953305967
3.3,1.2440019e-05,0.000107288703,0.000275742744,0.000495893268,0.000743080423,0.000959122739
3.35,1.24461413e-05,0.000107309071,0.000275788543,0.000496025368,0.000744473035,0.000964690125
3.4,1.24523908e-05,0.000107329339,0.000275833372,0.000496149166,0.00074565337,0.000970008609
3.45,1.24587903e-05,0.000107349531,0.000275877303,0.000496265755,0.000746648379,0.000975078598
3.5,1.24653656e-05,0.000107369677,0.000275920395,0.00049637604,0.000747486288,0.000979900407
3.55,1.24721449e-05,0.000107389813,0.000275962706,0.00049648077,0.000748194138,0.000984474246
3.6,1.24791599e-05,0.000107409978,0.000276004287,0.000496580579,0.000748796035,0.000988800195
3.65,1.24864451e-05,0.000107430221,0.000276045184,0.000496675999,0.000749312357,0.000992878195
3.7,1.24940385e-05,0.000107450598,0.000276085443,0.000496767486,0.000749759719,0.00099670804
3.75,1.25019815e-05,0.000107471174,0.000276125104,0.000496855431,0.000750151369,0.00100028938
3.8,1.25103192e-05,0.000107492026,0.000276164208,0.000496940172,0.000750497754,0.00100362179
3.85,1.25191006e-05,0.000107513242,0.000276202793,0.000497022001,0.000750807079,0.00100670486
3.9,1.25283784e-05,0.000107534924,0.000276240901,0.000497101176,0.000751085797,0.00100953841
3.95,1.25382095e-05,0.000107557189,0.000276278571,0.00049717792,0.000751339009,0.00101212296
4.0,1.25486549e-05,0.000107580171,0.000276315847,0.000497252432,0.00075157077,0.00101446025
4.05,1.25597799e-05,0.000107604021,0.000276352779,0.000497324889,0.000751784333,0.00101655419
4.1,1.25716542e-05,0.000107628909,0.000276389419,0.000497395445,0.000751982326,0.00101841181
4.15,1.25843517e-05,0.000107655028,0.000276425828,0.000497464242,0.000752166893,0.00102004416
4.2,1.25979512e-05,0.000107682593,0.000276462079,0.000497531405,0.000752339796,0.00102146662
4.25,1.26125358e-05,0.00010771184,0.000276498253,0.000497597047,0.000752502496,0.00102269848
4.3,1.26281932e-05,0.000107743036,0.000276534448,0.000497661271,0.000752656212,0.00102376165
4.35,1.2645016e-05,0.000107776469,0.000276570778,0.000497724172,0.000752801973,0.0010246789
4.4,1.26631013e-05,0.000107812461,0.000276607376,0.000497785834,0.000752940649,0.00102547225
4.45,1.26825511e-05,0.000107851359,0.000276644399,0.00049784634,0.000753072983,0.00102616172
4.5,1.27034718e-05,0.000107893545,0.000276682029,0.000497905766,0.000753199613,0.00102676476
4.55,1.27259749e-05,0.000107939431,0.000276720477,0.000497964184,0.000753321089,0.00102729608
4.6,1.27501764e-05,0.000107989462,0.000276759988,0.000498021667,0.00075343789,0.00102776786
4.65,1.27761969e-05,0.000108044119,0.000276800843,0.000498078288,0.000753550435,0.00102819004
4.7,1.28041618e-05,0.000108103919,0.000276843363,0.000498134123,0.000753659089,0.00102857068
4.75,1.2834201e-05,0.000108169413,0.000276887913,0.000498189251,0.000753764175,0.00102891632
4.8,1.28664491e-05,0.000108241192,0.000276934908,0.000498243762,0.000753865981,0.00102923229
4.85,1.29010451e-05,0.000108319883,0.000276984811,0.000498297753,0.000753964759,0.00102952292
4.9,1.29381322e-05,0.000108406152,0.000277038144,0.000498351339,0.000754060737,0.00102979175
4.95,1.29778584e-05,0.000108500706,0.000277095489,0.000498404649,0.000754154119,0.00103004172
5.0,1.30203755e-05,0.000108604289,0.000277157489,0.000498457835,0.000754245088,0.00103027525
5.05,1.30658397e-05,0.000108717685,0.000277224856,0.000498511075,0.00075433381,0.00103049438
5.1,1.31144114e-05,0.000108841721,0.000277298372,0.000498564577,0.000754420436,0.00103070079
5.15,1.31662548e-05,0.000108977261,0.000277378897,0.000498618586,0.000754505104,0.00103089595
5.2,1.32215378e-05,0.000109125212,0.000277467364,0.000498673387,0.000754587942,0.00103108107
5.25,1.32804325e-05,0.000109286518,0.00027756479,0.000498729313,0.000754669072,0.0010312572
5.3,1.33431143e-05,0.000109462167,0.000277672277,0.00049878675,0.000754748607,0.00103142524
5.35,1.34097621e-05,0.000109653183,0.000277791012,0.000498846143,0.000754826658,0.00103158598
5.4,1.34805584e-05,0.000109860632,0.000277922273,0.000498908006,0.000754903337,0.00103174009
5.45,1.35556889e-05,0.000110085619,0.00027806743,0.000498972921,0.000754978755,0.00103188818
5.5,1.36353424e-05,0.000110329287,0.000278227947,0.000499041554,0.000755053032,0.00103203076
5.55,1.37197106e-05,0.000110592817,0.000278405385,0.000499114657,0.000755126294,0.00103216828
5.6,1.38089884e-05,0.000110877428,0.000278601404,0.000499193074,0.000755198684,0.00103230117
5.65,1.39033731e-05,0.000111184375,0.00027881776,0.000499277753,0.000755270361,0.00103242978
5.7,1.40030647e-05,0.00011151495,0.000279056314,0.000499369747,0.000755341506,0.00103255443
5.75,1.41082658e-05,0.00011187048,0.000279319026,0.000499470226,0.000755412333,0.00103267542
5.8,1.42191813e-05,0.000112252325,0.000279607958,0.00049958048,0.000755483089,0.00103279301
5.85,1.4336018e-05,0.00011266188,0.000279925277,0.000499701929,0.000755554063,0.00103290743
5.9,1.44589853e-05,0.000113100573,0.00028027325,0.000499836126,0.000755625595,0.00103301889
5.95,1.4588294e-05,0.00011356986,0.000280654249,0.000499984765,0.000755698082,0.00103312759
6.0,1.47241569e-05,0.000114071231,0.000281070749,0.000500149686,0.000755771989,0.00103323372
6.05,1.48667885e-05,0.000114606204,0.000281525324,0.000500332883,0.000755847853,0.00103333745
6.1,1.50164047e-05,0.000115176325,0.000282020653,0.000500536505,0.000755926299,0.00103343892
6.15,1.51732229e-05,0.000115783167,0.000282559511,0.000500762862,0.000756008046,0.0010335383
6.2,1.53374617e-05,0.000116428329,0.000283144776,0.000501014431,0.000756093916,0.00103363574
6.25,1.55093407e-05,0.000117113434,0.000283779422,0.000501293859,0.000756184848,0.00103373139
6.3,1.56890807e-05,0.00011784013,0.000284466517,0.000501603966,0.000756281903,0.00103382541
6.35,1.58769031e-05,0.000118610085,0.000285209227,0.000501947748,0.000756386283,0.00103391798
6.4,1.60730303e-05,0.000119424991,0.000286010807,0.00050232838,0.000756499333,0.00103400926
6.45,1.62776853e-05,0.000120286557,0.000286874604,0.000502749217,0.000756622557,0.00103409949
6.5,1.64910913e-05,0.000121196512,0.000287804053,0.000503213798,0.000756757625,0.00103418888
6.55,1.67134722e-05,0.000122156603,0.000288802674,0.000503725844,0.000756906389,0.00103427772
6.6,1.69450521e-05,0.000123168591,0.00028987407,0.00050428926,0.000757070885,0.00103436632
