vds,vb1,vb2,vb3,vb4,vb5,vb6
0.0,-5.2577631899999996e-24,-5.0314743099999995e-24,-3.17594857e-20,-7.83612967e-20,1.0707861e-19,-2.49455305e-19
0.05,1.42197143e-05,4.33340856e-05,6.37776161e-05,7.80117631e-05,8.74592767e-05,9.33145412e-05
0.1,2.56410936e-05,8.36458694e-05,0.000124583707,0.000153224301,0.000172353392,0.000184317055
0.15,3.44121973e-05,0.000121052881,0.000182525207,0.000225732268,0.000254765831,0.00027308188
0.2,4.0692901e-05,0.00015563509,0.000237673957,0.00029559711,0.000334748108,0.000359652142
0.25,4.47914333e-05,0.00018746147,0.000290091215,0.000362870283,0.000412342185,0.000444061703
0.3,4.73281114e-05,0.000216597338,0.000339834494,0.000427599849,0.000487586916,0.000526341508
0.35,4.90521686e-05,0.00024310657,0.000386959445,0.000489832324,0.000560519872,0.000606521401
0.4,5.04158506e-05,0.000267052638,0.000431520394,0.000549613193,0.000631177859,0.000684630644
0.45,5.1594886e-05,0.00028849966,0.000473570515,0.000606987049,0.000699597052,0.000760698063
0.5,5.26575219e-05,0.000307514175,0.000513161904,0.00066199764,0.000765813038,0.000834752081
0.55,5.36366103e-05,0.000324168584,0.000550345646,0.000714687887,0.000829860825,0.000906820726
0.6,5.45513623e-05,0.000338548198,0.000585171883,0.000765099903,0.000891774839,0.000976931634
0.65,5.54145022e-05,0.000350765473,0.000617689881,0.000813275008,0.000951588936,0.00104511205
0.7,5.62351173e-05,0.000360984863,0.000647948125,0.000859253752,0.00100933641,0.00111138881
0.75,5.70200161e-05,0.000369449925,0.000675994404,0.000903075936,0.00106504999,0.00117578838
0.8,5.77744701e-05,0.000376477317,0.000701875929,0.000944780629,0.00111876187,0.00123833683
0.85,5.85026609e-05,0.000382395741,0.00072563947,0.000984406179,0.00117050372,0.00129905983
0.9,5.92079686e-05,0.000387481041,0.000747331566,0.00102199021,0.00122030666,0.00135798271
0.95,5.98931681e-05,0.00039193704,0.000766998985,0.0010575696,0.00126820134,0.0014151304
1.0,6.05605667e-05,0.000395907925,0.000784690007,0.00109118041,0.0013142179,0.00147052748
1.05,6.12121045e-05,0.000399496001,0.000800458355,0.00112285778,0.00135838597,0.00152419818
1.1,6.18494286e-05,0.000402775344,0.000814373612,0.00115263567,0.00140073472,0.00157616638
1.15,6.24739488e-05,0.000405800911,0.000826540982,0.0011805465,0.00144129278,0.00162645565
1.2,6.30868816e-05,0.000408614428,0.000837120586,0.0012066204,0.00148008825,0.00167508921
1.25,6.36892837e-05,0.000411248256,0.000846322983,0.00123088417,0.00151714863,0.00172208994
1.3,6.42820785e-05,0.000413727959,0.000854376539,0.00125335953,0.00155250073,0.00176748044
1.35,6.48660779e-05,0.000416074064,0.000861492551,0.00127406131,0.00158617051,0.00181128294
1.4,6.5441999e-05,0.000418303292,0.000867847826,0.00129299695,0.00161818277,0.00185351935
1.45,6.60104785e-05,0.000420429438,0.000873582948,0.00131017195,0.00164856082,0.00189421123
1.5,6.65720839e-05,0.000422464014,0.000878807556,0.00132560705,0.00167732571,0.00193337974
1.55,6.71273234e-05,0.00042441672,0.000883607,0.00133936521,0.0017044952,0.0019710456
1.6,6.76766534e-05,0.000426295805,0.000888048165,0.00135156968,0.00173008213,0.00200722898
1.65,6.82204857e-05,0.000428108342,0.000892184021,0.00136239456,0.00175409214,0.00204194943
1.7,6.87591927e-05,0.000429860441,0.000896057018,0.00137203455,0.00177652107,0.00207522561
1.75,6.92931124e-05,0.000431557414,0.000899701578,0.00138067632,0.00179735358,0.00210707505
1.8,6.98225523e-05,0.000433203906,0.000903145939,0.00138848303,0.00181656673,0.00213751364
1.85,7.03477932e-05,0.000434804008,0.00090641351,0.00139559038,0.00183414344,0.00216655496
1.9,7.08690917e-05,0.000436361335,0.000909523893,0.00140210868,0.00185009589,0.00219420916
1.95,7.13866835e-05,0.000437879098,0.000912493648,0.00140812694,0.00186448729,0.00222048142
2.0,7.1900785e-05,0.000439360166,0.000915336884,0.00141371705,0.00187743532,0.00224536984
2.05,7.24115958e-05,0.000440807108,0.000918065716,0.00141893742,0.00188909454,0.00226886304
2.1,7.29193002e-05,0.000442222235,0.000920690616,0.00142383585,0.00189963112,0.00229093843
2.15,7.34240689e-05,0.000443607634,0.000923220695,0.00142845182,0.00190920316,0.00231156389
2.2,7.39260604e-05,0.000444965195,0.00092566393,0.0014328182,0.00191795071,0.00233070612
2.25,7.44254221e-05,0.000446296635,0.000928027338,0.00143696258,0.00192599301,0.00234834745
2.3,7.4922292e-05,0.00044760352,0.000930317128,0.00144090835,0.00193342959,0.00236450562
2.35,7.54167992e-05,0.000448887278,0.000932538819,0.00144467545,0.00194034292,0.00237924493
2.4,7.59090654e-05,0.000450149222,0.000934697333,0.00144828102,0.00194680127,0.0023926715
2.45,7.63992058e-05,0.000451390553,0.000936797084,0.00145173989,0.00195286135,0.00240491653
2.5,7.688733e-05,0.000452612382,0.000938842041,0.00145506495,0.00195857048,0.00241611803
2.55,7.73735433e-05,0.000453815732,0.000940835789,0.0014582675,0.00196396845,0.00242640757
2.6,7.78579475e-05,0.000455001549,0.000942781573,0.00146135749,0.00196908888,0.00243590341
2.65,7.83406421e-05,0.000456170713,0.000944682342,0.0014643437,0.00197396044,0.00244470838
2.7,7.88217252e-05,0.000457324043,0.000946540784,0.00146723394,0.00197860768,0.00245291026
2.75,7.93012947e-05,0.000458462302,0.000948359354,0.00147003518,0.00198305177,0.00246058342
2.8,7.97794498e-05,0.000459586208,0.000950140301,0.00147275367,0.00198731111,0.00246779071
2.85,8.02562916e-05,0.000460696434,0.000951885694,0.00147539502,0.00199140173,0.00247458534
2.9,8.07319251e-05,0.000461793619,0.000953597436,0.00147796429,0.00199533772,0.00248101249
2.95,8.12064599e-05,0.00046287837,0.000955277285,0.00148046608,0.00199913148,0.00248711071
3.0,8.16800121e-05,0.000463951268,0.000956926868,0.00148290455,0.00200279401,0.00249291307
3.05,8.21527055e-05,0.000465012877,0.000958547696,0.00148528349,0.00200633511,0.00249844808
3.1,8.26246733e-05,0.000466063745,0.000960141179,0.00148760637,0.00200976351,0.00250374046
3.15,8.30960592e-05,0.000467104411,0.000961708633,0.00148987636,0.00201308705,0.00250881174
3.2,8.35670198e-05,0.000468135413,0.000963251292,0.00149209639,0.0020163128,0.00251368078
3.25,8.40377255e-05,0.000469157293,0.000964770325,0.00149426914,0.00201944714,0.00251836418
3.3,8.45083628e-05,0.000470170602,0.000966266837,0.00149639708,0.00202249584,0.00252287663
3.35,8.49791353e-05,0.000471175909,0.000967741887,0.0014984825,0.00202546415,0.00252723116
3.4,8.54502664e-05,0.000472173806,0.000969196494,0.00150052754,0.00202835686,0.0025314394
3.45,8.5922e-05,0.000473164916,0.000970631649,0.00150253418,0.00203117836,0.00253551174
3.5,8.6394603e-05,0.000474149899,0.000972048325,0.00150450428,0.00203393264,0.00253945754
3.55,8.6868367e-05,0.000475129463,0.00097344749,0.00150643956,0.0020366234,0.00254328521
3.6,8.73436095e-05,0.000476104367,0.000974830117,0.00150834168,0.00203925403,0.0025470024
3.65,8.78206762e-05,0.000477075433,0.000976197195,0.00151021219,0.00204182766,0.002550616
3.7,8.82999425e-05,0.000478043551,0.000977549743,0.00151205258,0.0020443472,0.00255413232
3.75,8.87818151e-05,0.000479009687,0.000978888824,0.00151386429,0.00204681534,0.00255755709
3.8,8.92667338e-05,0.000479974895,0.000980215557,0.00151564871,0.00204923459,0.00256089556
3.85,8.97551727e-05,0.00048094032,0.000981531131,0.00151740722,0.00205160731,0.00256415257
3.9,9.02476425e-05,0.00048190721,0.000982836819,0.00151914119,0.00205393569,0.00256733253
3.95,9.0744691e-05,0.00048287692,0.000984133995,0.00152085199,0.00205622181,0.00257043954
4.0,9.12469053e-05,0.000483850924,0.000985424148,0.00152254103,0.00205846766,0.00257347736
4.05,9.1754913e-05,0.000484830819,0.000986708896,0.00152420977,0.00206067512,0.00257644948
4.1,9.22693829e-05,0.000485818335,0.000987990003,0.00152585972,0.00206284602,0.00257935917
4.15,9.27910271e-05,0.000486815342,0.000989269396,0.00152749249,0.00206498212,0.00258220944
4.2,9.33206015e-05,0.000487823854,0.000990549177,0.00152910979,0.00206708519,0.00258500313
4.25,9.3858907e-05,0.000488846038,0.000991831643,0.00153071347,0.00206915696,0.00258774289
4.3,9.44067907e-05,0.000489884222,0.000993119298,0.00153230551,0.00207119918,0.00259043122
4.35,9.49651465e-05,0.000490940895,0.000994414871,0.00153388809,0.00207321366,0.00259307051
4.4,9.55349159e-05,0.000492018721,0.000995721329,0.00153546356,0.00207520226,0.00259566304
4.45,9.61170891e-05,0.000493120534,0.000997041894,0.00153703452,0.00207716692,0.00259821099
4.5,9.67127052e-05,0.00049424935,0.000998380052,0.00153860378,0.00207910971,0.00260071649
4.55,9.7322853e-05,0.000495408371,0.000999739573,0.00154017446,0.00208103285,0.00260318164
4.6,9.79486712e-05,0.000496600984,0.00100112452,0.00154174994,0.00208293869,0.00260560854
4.65,9.85913492e-05,0.000497830767,0.00100253926,0.00154333392,0.00208482984,0.00260799927
4.7,9.92521272e-05,0.000499101492,0.00100398847,0.00154493045,0.0020867091,0.00261035599
4.75,9.99322961e-05,0.000500417127,0.00100547718,0.00154654394,0.00208857954,0.00261268092
4.8,0.000100633198,0.000501781838,0.00100701072,0.00154817918,0.00209044454,0.00261497639
4.85,0.000101356227,0.00050319999,0.00100859481,0.00154984136,0.0020923078,0.00261724485
4.9,0.000102102827,0.000504676147,0.00101023548,0.0015515361,0.00209417335,0.00261948894
4.95,0.000102874494,0.000506215073,0.00101193914,0.00155326947,0.00209604566,0.0026217115
5.0,0.000103672774,0.000507821734,0.00101371258,0.001555048,0.00209792957,0.00262391559
5.05,0.000104499265,0.000509501294,0.00101556294,0.0015568787,0.00209983042,0.0026261046
5.1,0.000105355615,0.000511259116,0.00101749775,0.00155876906,0.00210175399,0.00262828218
5.15,0.00010624352,0.00051310076,0.0010195249,0.00156072711,0.0021037066,0.00263045238
5.2,0.00010716473,0.000515031983,0.00102165268,0.00156276139,0.00210569511,0.00263261961
5.25,0.000108121039,0.000517058733,0.00102388975,0.00156488095,0.00210772693,0.00263478875
5.3,0.000109114294,0.000519187149,0.00102624515,0.00156709543,0.00210981008,0.00263696514
5.35,0.000110146387,0.00052142356,0.0010287283,0.00156941498,0.0021119532,0.00263915462
5.4,0.000111219259,0.000523774477,0.001031349,0.00157185035,0.00211416555,0.00264136361
5.45,0.000112334898,0.000526246593,0.00103411742,0.00157441281,0.00211645708,0.00264359909
5.5,0.000113495335,0.000528846777,0.0010370441,0.00157711424,0.00211883841,0.00264586871
5.55,0.00011470265,0.000531582073,0.00104013995,0.00157996706,0.00212132085,0.00264818074
5.6,0.000115958965,0.00053445969,0.00104341623,0.00158298427,0.00212391643,0.00265054419
5.65,0.000117266447,0.000537487002,0.00104688455,0.00158617943,0.00212663792,0.00265296877
5.7,0.000118627304,0.000540671542,0.00105055688,0.00158956669,0.00212949881,0.00265546496
5.75,0.000120043787,0.000544020995,0.00105444552,0.00159316072,0.00213251333,0.00265804404
5.8,0.000121518187,0.000547543195,0.00105856308,0.00159697679,0.00213569647,0.00266071811
5.85,0.000123052837,0.000551246118,0.00106292252,0.00160103066,0.00213906398,0.0026635001
5.9,0.000124650105,0.000555137877,0.00106753708,0.00160533868,0.00214263237,0.00266640381
5.95,0.0001263124,0.000559226714,0.00107242031,0.0016099177,0.00214641888,0.00266944391
6.0,0.000128042166,0.000563520997,0.00107758605,0.00161478507,0.00215044152,0.00267263599
6.05,0.000129841885,0.000568029213,0.00108304841,0.00161995868,0.00215471904,0.00267599652
6.1,0.00013171407,0.00057275996,0.00108882175,0.00162545686,0.00215927093,0.00267954293
6.15,0.000133661272,0.000577721944,0.00109492069,0.00163129845,0.00216411742,0.00268329356
6.2,0.00013568607,0.000582923968,0.0011013601,0.00163750272,0.00216927943,0.00268726766
6.25,0.000137791079,0.000588374932,0.00110815504,0.00164408939,0.00217477859,0.00269148545
6.3,0.000139978941,0.000594083819,0.00111532081,0.00165107857,0.00218063722,0.00269596806
6.35,0.000142252328,0.000600059695,0.00112287289,0.0016584908,0.00218687831,0.00270073756
6.4,0.000144613941,0.0006063117,0.00113082695,0.00166634697,0.00219352549,0.00270581693
6.45,0.000147066508,0.00061284904,0.00113919881,0.00167466836,0.00220060301,0.00271123005
6.5,0.000149612782,0.000619680984,0.00114800446,0.00168347654,0.00220813573,0.00271700172
6.55,0.000152255541,0.000626816855,0.00115726003,0.00169279343,0.00221614908,0.0027231576
6.6,0.000154997587,0.000634266024,0.00116698177,0.00170264122,0.00222466904,0.00272972419
