vds,vb1,vb2,vb3,vb4,vb5,vb6
0.0,-2.47129957e-25,9.79223241e-25,-5.87558911e-25,-1.5183056800000001e-21,1.3772041600000001e-21,-1.17918954e-19
0.05,2.43506003e-06,7.37135946e-06,1.09430865e-05,1.34960708e-05,1.5245241e-05,1.63780294e-05
0.1,4.42153131e-06,1.4264766e-05,2.14175885e-05,2.6549626e-05,3.00829544e-05,3.23866101e-05
0.15,5.98116837e-06,2.06988804e-05,3.14409726e-05,3.91766366e-05,4.45276949e-05,4.80391018e-05
0.2,7.13297255e-06,2.66847483e-05,4.10234739e-05,5.13861363e-05,5.8587282e-05,6.33422591e-05
0.25,7.91028785e-06,3.22313053e-05,5.01732702e-05,6.31851743e-05,7.22676072e-05,7.83009474e-05
0.3,8.38677705e-06,3.7346855e-05,5.889789e-05,7.45801849e-05,8.55739774e-05,9.29194698e-05
0.35,8.67986505e-06,4.20394816e-05,6.72045944e-05,8.55773633e-05,9.85114878e-05,0.000107201938
0.4,8.88732397e-06,4.63171976e-05,7.51004818e-05,9.61827693e-05,0.000111085125,0.000121152376
0.45,9.05491109e-06,5.01880474e-05,8.25925179e-05,0.000106402355,0.000123299797,0.000134774749
0.5,9.20008376e-06,5.36602534e-05,8.96875475e-05,0.000116241974,0.000135160337,0.000148072971
0.55,9.33033962e-06,5.67424784e-05,9.63923011e-05,0.000125707382,0.00014667151,0.000161050906
0.6,9.44960486e-06,5.9444344e-05,0.000102713402,0.000134804242,0.00015783801,0.000173712368
0.65,9.56028157e-06,6.17774863e-05,0.000108657374,0.000143538124,0.000168664462,0.000186061123
0.7,9.663997e-06,6.37576883e-05,0.000114230651,0.000151914508,0.000179155423,0.000198100889
0.75,9.76192804e-06,6.54087125e-05,0.000119439591,0.000159938785,0.000189315382,0.000209835333
0.8,9.85496398e-06,6.67670645e-05,0.000124290487,0.000167616264,0.000199148762,0.000221268074
0.85,9.9437981e-06,6.78827415e-05,0.000128789595,0.000174952168,0.000208659923,0.000232402686
0.9,1.00289837e-05,6.8810678e-05,0.000132943163,0.000181951643,0.000217853159,0.000243242691
0.95,1.01109704e-05,6.95987558e-05,0.000136757489,0.000188619755,0.000226732704,0.00025379157
1.0,1.01901294e-05,7.02826222e-05,0.000140239018,0.000194961494,0.000235302732,0.000264052754
1.05,1.02667709e-05,7.08871671e-05,0.000143394533,0.000200981769,0.000243567359,0.000274029631
1.1,1.03411568e-05,7.14297185e-05,0.000146231554,0.00020668541,0.000251530644,0.000283725549
1.15,1.04135106e-05,7.19226118e-05,0.000148759169,0.000212077157,0.000259196588,0.000293143808
1.2,1.04840244e-05,7.23748777e-05,0.000150989684,0.000217161652,0.000266569141,0.000302287672
1.25,1.05528646e-05,7.27933075e-05,0.00015294113,0.000221943409,0.000273652192,0.000311160362
1.3,1.06201764e-05,7.318313e-05,0.000154639383,0.000226426784,0.000280449577,0.000319765061
1.35,1.06860871e-05,7.35484547e-05,0.000156117312,0.00023061591,0.00028696507,0.000328104915
1.4,1.07507091e-05,7.38925685e-05,0.000157410402,0.000234514611,0.000293202379,0.000336183029
1.45,1.08141419e-05,7.42181412e-05,0.000158551815,0.000238126284,0.00029916514,0.000344002475
1.5,1.08764742e-05,7.45273702e-05,0.000159569643,0.00024145382,0.0003048569,0.000351566283
1.55,1.09377854e-05,7.48220859e-05,0.000160486438,0.000244499744,0.000310281096,0.000358877449
1.6,1.09981468e-05,7.51038287e-05,0.000161319904,0.000247267011,0.000315441022,0.000365938928
1.65,1.10576225e-05,7.53739072e-05,0.00016208388,0.000249760999,0.000320339778,0.000372753631
1.7,1.11162708e-05,7.56334424e-05,0.000162789238,0.000251992513,0.000324980185,0.000379324427
1.75,1.11741441e-05,7.58834017e-05,0.000163444605,0.000253980011,0.000329364666,0.000385654131
1.8,1.12312906e-05,7.61246259e-05,0.000164056903,0.000255748856,0.000333495073,0.0003917455
1.85,1.1287754e-05,7.63578504e-05,0.00016463175,0.000257327805,0.000337372455,0.000397601216
1.9,1.13435744e-05,7.65837217e-05,0.000165173758,0.00025874512,0.000340996829,0.000403223871
1.95,1.13987885e-05,7.68028115e-05,0.000165686751,0.000260026095,0.000344367127,0.000408615937
2.0,1.145343e-05,7.70156276e-05,0.000166173935,0.000261192167,0.000347481698,0.000413779723
2.05,1.15075302e-05,7.72226233e-05,0.000166638019,0.000262261009,0.00035033987,0.000418717314
2.1,1.15611178e-05,7.74242046e-05,0.000167081311,0.000263247023,0.000352944626,0.000423430481
2.15,1.16142195e-05,7.76207367e-05,0.000167505794,0.000264161932,0.000355305301,0.000427920543
2.2,1.166686e-05,7.78125493e-05,0.000167913184,0.000265015309,0.000357438431,0.000432188186
2.25,1.17190625e-05,7.79999411e-05,0.000168304973,0.00026581502,0.000359366031,0.000436233224
2.3,1.17708484e-05,7.81831834e-05,0.000168682468,0.000266567582,0.000361112468,0.000440054346
2.35,1.18222379e-05,7.83625236e-05,0.000169046819,0.000267278435,0.000362701631,0.000443648984
2.4,1.18732501e-05,7.85381875e-05,0.000169399045,0.000267952154,0.000364155221,0.00044701356
2.45,1.1923903e-05,7.87103822e-05,0.00016974005,0.000268592624,0.000365492084,0.000450144496
2.5,1.19742136e-05,7.8879298e-05,0.000170070643,0.00026920316,0.00036672819,0.000453040182
2.55,1.20241983e-05,7.90451101e-05,0.000170391546,0.000269786615,0.000367876923,0.000455703401
2.6,1.2073873e-05,7.92079803e-05,0.000170703414,0.000270345461,0.000368949452,0.000458142972
2.65,1.21232529e-05,7.93680582e-05,0.000171006832,0.000270881849,0.000369955117,0.000460373592
2.7,1.21723533e-05,7.95254829e-05,0.000171302336,0.000271397664,0.000370901752,0.000462413999
2.75,1.22211892e-05,7.96803838e-05,0.000171590408,0.000271894568,0.000371795967,0.000464284566
2.8,1.22697757e-05,7.98328818e-05,0.000171871491,0.000272374028,0.000372643366,0.0004660053
2.85,1.23181282e-05,7.99830901e-05,0.000172145988,0.000272837351,0.000373448737,0.00046759463
2.9,1.23662625e-05,8.01311155e-05,0.00017241427,0.000273285704,0.00037421619,0.000469068884
2.95,1.2414195e-05,8.0277059e-05,0.000172676675,0.000273720131,0.000374949278,0.000470442211
3.0,1.24619429e-05,8.04210167e-05,0.000172933517,0.000274141572,0.000375651088,0.000471726732
3.05,1.25095247e-05,8.0563081e-05,0.000173185086,0.000274550876,0.000376324317,0.000472932776
3.1,1.25569599e-05,8.07033411e-05,0.000173431649,0.000274948812,0.000376971335,0.000474069148
3.15,1.26042696e-05,8.08418841e-05,0.000173673454,0.000275336079,0.000377594233,0.000475143361
3.2,1.26514764e-05,8.0978796e-05,0.000173910734,0.000275713313,0.000378194865,0.000476161853
3.25,1.2698605e-05,8.11141626e-05,0.000174143705,0.000276081095,0.000378774884,0.000477130164
3.3,1.27456824e-05,8.12480704e-05,0.000174372572,0.000276439959,0.000379335764,0.000478053081
3.35,1.27927376e-05,8.13806078e-05,0.000174597525,0.000276790394,0.000379878831,0.000478934765
3.4,1.28398027e-05,8.15118664e-05,0.000174818749,0.00027713285,0.000380405279,0.000479778848
3.45,1.28869123e-05,8.16419414e-05,0.000175036417,0.000277467744,0.000380916185,0.000480588513
3.5,1.29341043e-05,8.17709338e-05,0.000175250697,0.000277795462,0.000381412529,0.000481366568
3.55,1.29814199e-05,8.18989508e-05,0.000175461755,0.00027811636,0.000381895198,0.000482115498
3.6,1.3028904e-05,8.20261074e-05,0.000175669751,0.000278430773,0.000382365003,0.000482837511
3.65,1.30766051e-05,8.21525275e-05,0.000175874847,0.000278739012,0.000382822686,0.000483534577
3.7,1.31245758e-05,8.22783456e-05,0.000176077204,0.000279041369,0.000383268927,0.000484208462
3.75,1.31728732e-05,8.24037076e-05,0.000176276987,0.000279338122,0.00038370435,0.000484860752
3.8,1.32215584e-05,8.25287726e-05,0.00017647437,0.000279629532,0.00038412953,0.00048549288
3.85,1.32706977e-05,8.26537138e-05,0.000176669529,0.000279915851,0.000384545,0.00048610614
3.9,1.33203618e-05,8.27787204e-05,0.000176862654,0.000280197322,0.000384951252,0.000486701708
3.95,1.33706268e-05,8.29039983e-05,0.000177053947,0.000280474181,0.000385348743,0.000487280656
4.0,1.34215738e-05,8.3029772e-05,0.000177243626,0.00028074666,0.000385737899,0.000487843959
4.05,1.34732893e-05,8.31562856e-05,0.000177431924,0.000281014994,0.00038611912,0.000488392512
4.1,1.35258655e-05,8.32838039e-05,0.000177619097,0.000281279416,0.000386492781,0.000488927136
4.15,1.35794001e-05,8.3412614e-05,0.000177805423,0.000281540168,0.000386859234,0.000489448586
4.2,1.36339968e-05,8.35430265e-05,0.000177991207,0.000281797499,0.000387218818,0.000489957556
4.25,1.36897651e-05,8.36753762e-05,0.000178176781,0.000282051672,0.000387571853,0.000490454691
4.3,1.37468206e-05,8.38100235e-05,0.000178362511,0.000282302965,0.000387918651,0.000490940587
4.35,1.3805285e-05,8.39473555e-05,0.000178548795,0.000282551676,0.000388259516,0.000491415796
4.4,1.38652862e-05,8.40877867e-05,0.000178736068,0.000282798126,0.000388594748,0.000491880836
4.45,1.39269585e-05,8.42317601e-05,0.000178924807,0.000283042666,0.000388924647,0.00049233619
4.5,1.39904424e-05,8.43797481e-05,0.00017911553,0.000283285676,0.000389249517,0.000492782311
4.55,1.40558849e-05,8.45322527e-05,0.000179308799,0.000283527573,0.000389569669,0.000493219627
4.6,1.41234393e-05,8.4689807e-05,0.000179505226,0.000283768816,0.000389885428,0.000493648547
4.65,1.41932656e-05,8.48529751e-05,0.000179705469,0.000284009907,0.000390197135,0.000494069459
4.7,1.42655299e-05,8.5022353e-05,0.000179910242,0.000284251398,0.000390505153,0.000494482739
4.75,1.43404049e-05,8.51985688e-05,0.000180120312,0.000284493893,0.000390809872,0.000494888756
4.8,1.44180699e-05,8.53822833e-05,0.000180336502,0.000284738055,0.000391111715,0.000495287869
4.85,1.44987104e-05,8.55741899e-05,0.000180559692,0.000284984609,0.000391411142,0.000495680442
4.9,1.45825184e-05,8.57750151e-05,0.000180790825,0.000285234344,0.000391708656,0.000496066839
4.95,1.46696921e-05,8.59855187e-05,0.000181030902,0.000285488123,0.000392004809,0.000496447436
5.0,1.47604362e-05,8.62064933e-05,0.000181280991,0.000285746879,0.000392300209,0.000496822622
5.05,1.48549615e-05,8.64387649e-05,0.000181542219,0.000286011625,0.000392595523,0.000497192808
5.1,1.4953485e-05,8.66831922e-05,0.000181815782,0.000286283456,0.000392891486,0.00049755843
5.15,1.50562296e-05,8.6940667e-05,0.000182102941,0.000286563549,0.000393188905,0.000497919958
5.2,1.51634245e-05,8.72121133e-05,0.000182405023,0.000286853172,0.000393488666,0.000498277901
5.25,1.52753045e-05,8.74984875e-05,0.000182723423,0.000287153681,0.000393791738,0.000498632812
5.3,1.53921106e-05,8.78007775e-05,0.000183059602,0.000287466527,0.00039409918,0.0004989853
5.35,1.5514089e-05,8.81200029e-05,0.000183415091,0.000287793257,0.000394412149,0.000499336031
5.4,1.56414918e-05,8.84572136e-05,0.000183791486,0.000288135515,0.000394731899,0.000499685741
5.45,1.57745766e-05,8.88134901e-05,0.000184190453,0.000288495046,0.000395059793,0.000500035239
5.5,1.59136061e-05,8.91899424e-05,0.000184613724,0.000288873695,0.000395397302,0.000500385417
5.55,1.60588486e-05,8.95877092e-05,0.000185063095,0.000289273411,0.000395746016,0.000500737256
5.6,1.6210577e-05,9.00079576e-05,0.000185540432,0.000289696246,0.000396107641,0.000501091834
5.65,1.63690696e-05,9.04518818e-05,0.000186047662,0.000290144355,0.000396484009,0.000501450336
5.7,1.65346094e-05,9.09207029e-05,0.00018658678,0.00029062,0.000396877077,0.000501814055
5.75,1.67074838e-05,9.14156674e-05,0.000187159839,0.000291125546,0.000397288936,0.000502184404
5.8,1.68879852e-05,9.1938047e-05,0.000187768958,0.000291663464,0.000397721807,0.000502562923
5.85,1.707641e-05,9.2489137e-05,0.000188416312,0.000292236326,0.000398178049,0.000502951283
5.9,1.72730591e-05,9.30702557e-05,0.000189104137,0.000292846811,0.000398660157,0.000503351292
5.95,1.74782373e-05,9.36827436e-05,0.000189834725,0.000293497699,0.000399170767,0.000503764904
6.0,1.76922536e-05,9.43279622e-05,0.000190610423,0.000294191868,0.000399712655,0.000504194222
6.05,1.79154206e-05,9.50072927e-05,0.000191433632,0.000294932298,0.000400288739,0.000504641503
6.1,1.81480545e-05,9.57221357e-05,0.000192306803,0.000295722066,0.000400902078,0.000505109164
6.15,1.83904752e-05,9.64739095e-05,0.000193232436,0.000296564343,0.000401555873,0.000505599787
6.2,1.86430058e-05,9.72640494e-05,0.000194213079,0.000297462395,0.000402253468,0.000506116117
6.25,1.89059727e-05,9.80940066e-05,0.000195251326,0.000298419575,0.000402998344,0.000506661074
6.3,1.91797051e-05,9.89652468e-05,0.00019634981,0.000299439327,0.000403794124,0.000507237749
6.35,1.94645355e-05,9.98792499e-05,0.000197511207,0.000300525177,0.000404644567,0.000507849406
6.4,1.97607986e-05,0.000100837508,0.00019873823,0.000301680735,0.000405553567,0.000508499489
6.45,2.00688322e-05,0.000101841525,0.000200033629,0.000302909686,0.000406525151,0.000509191617
6.5,2.03889763e-05,0.000102892816,0.000201400184,0.000304215793,0.000407563476,0.000509929588
6.55,2.07215732e-05,0.000103992904,0.000202840708,0.000305602887,0.000408672824,0.000510717377
6.6,2.10669673e-05,0.000105143322,0.000204358043,0.00030707487,0.000409857603,0.000511559135
