vds,vb1,vb2,vb3,vb4,vb5,vb6
0.0,2.35462187e-23,4.31174443e-26,1.23098991e-26,-1.41390583e-25,3.0702809e-26,-8.925141630000001e-26
0.05,3.17946746e-07,9.51891013e-07,1.47657092e-06,1.89136963e-06,2.20434925e-06,2.42943323e-06
0.1,5.78660659e-07,1.84491854e-06,2.89659568e-06,3.72947174e-06,4.35908815e-06,4.81296667e-06
0.15,7.93537644e-07,2.69031162e-06,4.27121945e-06,5.52537306e-06,6.47521622e-06,7.16154569e-06
0.2,9.65795426e-07,3.49107007e-06,5.60341602e-06,7.28201477e-06,8.55564192e-06,9.47804925e-06
0.25,1.09687867e-06,4.24811361e-06,6.89408641e-06,9.0002716e-06,1.06012121e-05,1.17632982e-05
0.3,1.18858646e-06,4.96183624e-06,8.14360548e-06,1.06804924e-05,1.2612248e-05,1.40175882e-05
0.35,1.24493457e-06,5.63249908e-06,9.35221394e-06,1.2322892e-05,1.45889368e-05,1.62410805e-05
0.4,1.27433605e-06,6.26032993e-06,1.05201176e-05,1.39276499e-05,1.65314307e-05,1.8433902e-05
0.45,1.28814976e-06,6.8455489e-06,1.16475128e-05,1.54949367e-05,1.84398728e-05,2.05961701e-05
0.5,1.29494899e-06,7.3883757e-06,1.27345924e-05,1.70249193e-05,2.03144031e-05,2.27279997e-05
0.55,1.2988233e-06,7.88903277e-06,1.37815476e-05,1.85177636e-05,2.21551603e-05,2.48295043e-05
0.6,1.30138909e-06,8.34774819e-06,1.47885685e-05,1.9973634e-05,2.39622824e-05,2.69007971e-05
0.65,1.30329754e-06,8.76475997e-06,1.57558441e-05,2.13926943e-05,2.57359065e-05,2.89419904e-05
0.7,1.30483745e-06,9.14032338e-06,1.66835621e-05,2.27751071e-05,2.74761691e-05,3.09531962e-05
0.75,1.3061511e-06,9.47472422e-06,1.75719094e-05,2.41210343e-05,2.9183206e-05,3.29345259e-05
0.8,1.3073154e-06,9.76830352e-06,1.84210717e-05,2.54306365e-05,3.08571522e-05,3.48860904e-05
0.85,1.30837527e-06,1.00215053e-05,1.9231234e-05,2.67040739e-05,3.24981421e-05,3.68079999e-05
0.9,1.30935869e-06,1.02349708e-05,2.000258e-05,2.79415054e-05,3.41063094e-05,3.87003645e-05
0.95,1.31028404e-06,1.04097233e-05,2.07352929e-05,2.9143089e-05,3.56817869e-05,4.05632933e-05
1.0,1.31116392e-06,1.05475091e-05,2.14295548e-05,3.03089819e-05,3.7224707e-05,4.23968953e-05
1.05,1.31200729e-06,1.06513213e-05,2.20855476e-05,3.14393403e-05,3.87352012e-05,4.42012788e-05
1.1,1.31282076e-06,1.07258892e-05,2.27034526e-05,3.25343194e-05,4.02134005e-05,4.59765515e-05
1.15,1.31360928e-06,1.07775117e-05,2.32834512e-05,3.35940736e-05,4.16594351e-05,4.77228208e-05
1.2,1.31437669e-06,1.08128533e-05,2.38257254e-05,3.46187562e-05,4.30734343e-05,4.94401935e-05
1.25,1.315126e-06,1.08375033e-05,2.43304591e-05,3.56085194e-05,4.44555272e-05,5.11287759e-05
1.3,1.31585963e-06,1.0855376e-05,2.47978396e-05,3.65635146e-05,4.58058417e-05,5.27886738e-05
1.35,1.31657953e-06,1.08689401e-05,2.52280604e-05,3.7483892e-05,4.71245053e-05,5.44199925e-05
1.4,1.31728732e-06,1.0879692e-05,2.5621327e-05,3.83698009e-05,4.84116447e-05,5.60228368e-05
1.45,1.31798433e-06,1.08885417e-05,2.59778662e-05,3.92213891e-05,4.96673859e-05,5.7597311e-05
1.5,1.3186717e-06,1.08960555e-05,2.62979429e-05,4.00388036e-05,5.08918542e-05,5.91435189e-05
1.55,1.31935039e-06,1.09025979e-05,2.65818928e-05,4.08221899e-05,5.20851741e-05,6.06615639e-05
1.6,1.32002122e-06,1.09084115e-05,2.68301798e-05,4.15716921e-05,5.32474695e-05,6.21515487e-05
1.65,1.32068491e-06,1.09136631e-05,2.70435013e-05,4.2287453e-05,5.43788634e-05,6.36135757e-05
1.7,1.32134206e-06,1.09184711e-05,2.72229616e-05,4.29696135e-05,5.54794781e-05,6.50477466e-05
1.75,1.32199322e-06,1.09229216e-05,2.73703252e-05,4.36183129e-05,5.65494351e-05,6.64541628e-05
1.8,1.32263887e-06,1.09270789e-05,2.74882877e-05,4.42336885e-05,5.75888552e-05,6.78329251e-05
1.85,1.32327942e-06,1.09309918e-05,2.75805885e-05,4.48158754e-05,5.8597858e-05,6.91841337e-05
1.9,1.32391526e-06,1.09346986e-05,2.76517483e-05,4.53650063e-05,5.95765627e-05,7.05078885e-05
1.95,1.32454671e-06,1.09382292e-05,2.77064486e-05,4.58812115e-05,6.05250871e-05,7.18042887e-05
2.0,1.32517407e-06,1.09416077e-05,2.77488809e-05,4.63646189e-05,6.14435483e-05,7.30734331e-05
2.05,1.32579762e-06,1.09448538e-05,2.77823899e-05,4.68153543e-05,6.23320621e-05,7.43154199e-05
2.1,1.32641761e-06,1.09479834e-05,2.78094483e-05,4.72335434e-05,6.31907434e-05,7.55303467e-05
2.15,1.32703425e-06,1.095101e-05,2.78318096e-05,4.76193145e-05,6.40197057e-05,7.67183108e-05
2.2,1.32764775e-06,1.09539449e-05,2.78506989e-05,4.79728055e-05,6.48190609e-05,7.78794085e-05
2.25,1.32825831e-06,1.09567976e-05,2.78669731e-05,4.82941779e-05,6.55889196e-05,7.90137361e-05
2.3,1.32886612e-06,1.09595762e-05,2.78812384e-05,4.85836422e-05,6.63293905e-05,8.01213888e-05
2.35,1.32947133e-06,1.09622877e-05,2.78939306e-05,4.88415063e-05,6.70405803e-05,8.12024615e-05
2.4,1.33007414e-06,1.09649382e-05,2.79053685e-05,4.90682572e-05,6.77225934e-05,8.22570482e-05
2.45,1.3306747e-06,1.09675329e-05,2.79157898e-05,4.92646906e-05,6.83755311e-05,8.32852426e-05
2.5,1.3312732e-06,1.09700766e-05,2.79253747e-05,4.94320825e-05,6.89994921e-05,8.42871375e-05
2.55,1.33186983e-06,1.09725733e-05,2.79342621e-05,4.95723621e-05,6.95945706e-05,8.52628247e-05
2.6,1.33246481e-06,1.09750265e-05,2.7942561e-05,4.96881887e-05,7.01608569e-05,8.62123957e-05
2.65,1.33305836e-06,1.09774396e-05,2.79503578e-05,4.97828327e-05,7.06984353e-05,8.71359409e-05
2.7,1.33365075e-06,1.09798154e-05,2.7957722e-05,4.9859853e-05,7.12073841e-05,8.80335497e-05
2.75,1.3342423e-06,1.09821566e-05,2.79647104e-05,4.99227016e-05,7.16877741e-05,8.89053107e-05
2.8,1.33483337e-06,1.09844653e-05,2.79713696e-05,4.99744203e-05,7.21396675e-05,8.97513112e-05
2.85,1.33542439e-06,1.09867439e-05,2.79777383e-05,5.0017504e-05,7.25631172e-05,9.05716375e-05
2.9,1.33601586e-06,1.09889941e-05,2.79838492e-05,5.0053905e-05,7.29581671e-05,9.13663743e-05
2.95,1.33660838e-06,1.09912179e-05,2.79897297e-05,5.00851103e-05,7.3324854e-05,9.21356048e-05
3.0,1.33720265e-06,1.09934169e-05,2.79954034e-05,5.01122395e-05,7.36632142e-05,9.28794105e-05
3.05,1.33779947e-06,1.09955926e-05,2.80008904e-05,5.0136134e-05,7.39732973e-05,9.35978708e-05
3.1,1.33839982e-06,1.09977467e-05,2.80062082e-05,5.01574294e-05,7.4255194e-05,9.42910627e-05
3.15,1.33900477e-06,1.09998806e-05,2.80113719e-05,5.01766099e-05,7.4509086e-05,9.49590604e-05
3.2,1.33961562e-06,1.1001996e-05,2.80163948e-05,5.01940485e-05,7.47353256e-05,9.56019349e-05
3.25,1.34023382e-06,1.10040944e-05,2.80212885e-05,5.02100357e-05,7.49345504e-05,9.62197532e-05
3.3,1.34086103e-06,1.10061775e-05,2.80260634e-05,5.02248003e-05,7.5107816e-05,9.68125777e-05
3.35,1.34149914e-06,1.10082473e-05,2.80307286e-05,5.02385251e-05,7.52567066e-05,9.7380465e-05
3.4,1.34215029e-06,1.1010306e-05,2.80352922e-05,5.0251357e-05,7.53833598e-05,9.79234652e-05
3.45,1.34281686e-06,1.10123561e-05,2.80397616e-05,5.02634161e-05,7.54903592e-05,9.84416203e-05
3.5,1.34350154e-06,1.10144003e-05,2.80441433e-05,5.0274801e-05,7.55805136e-05,9.89349625e-05
3.55,1.3442073e-06,1.10164422e-05,2.80484433e-05,5.02855935e-05,7.56566004e-05,9.94035123e-05
3.6,1.34493744e-06,1.10184857e-05,2.8052667e-05,5.02958622e-05,7.57211581e-05,9.98472769e-05
3.65,1.34569559e-06,1.10205353e-05,2.80568194e-05,5.03056649e-05,7.57763723e-05,0.000100266248
3.7,1.34648573e-06,1.10225967e-05,2.8060905e-05,5.03150509e-05,7.58240475e-05,0.000100660399
3.75,1.34731223e-06,1.10246762e-05,2.80649282e-05,5.03240623e-05,7.58656343e-05,0.000101029688
3.8,1.34817984e-06,1.10267811e-05,2.80688932e-05,5.03327354e-05,7.59022817e-05,0.000101374058
3.85,1.3490937e-06,1.10289203e-05,2.8072804e-05,5.03411017e-05,7.59348938e-05,0.000101693445
3.9,1.35005939e-06,1.10311036e-05,2.80766645e-05,5.03491886e-05,7.59641819e-05,0.000101987799
3.95,1.3510829e-06,1.10333426e-05,2.8080479e-05,5.03570201e-05,7.59907075e-05,0.000102257118
4.0,1.3521707e-06,1.10356503e-05,2.80842518e-05,5.03646174e-05,7.60149165e-05,0.000102501499
4.05,1.35332968e-06,1.10380416e-05,2.80879876e-05,5.03719993e-05,7.60371657e-05,0.000102721227
4.1,1.35456721e-06,1.10405335e-05,2.80916917e-05,5.03791823e-05,7.60577429e-05,0.000102916871
4.15,1.35589115e-06,1.10431448e-05,2.80953701e-05,5.03861814e-05,7.6076882e-05,0.000103089381
4.2,1.35730983e-06,1.10458967e-05,2.80990296e-05,5.03930098e-05,7.60947749e-05,0.00010324015
4.25,1.35883206e-06,1.10488129e-05,2.81026781e-05,5.03996795e-05,7.61115803e-05,0.000103370993
4.3,1.36046718e-06,1.10519196e-05,2.81063251e-05,5.04062014e-05,7.61274305e-05,0.000103484044
4.35,1.36222501e-06,1.10552456e-05,2.81099815e-05,5.04125853e-05,7.61424363e-05,0.000103581587
4.4,1.36411588e-06,1.10588228e-05,2.81136601e-05,5.04188404e-05,7.61566918e-05,0.00010366588
4.45,1.36615063e-06,1.1062686e-05,2.81173761e-05,5.0424975e-05,7.61702769e-05,0.000103739019
4.5,1.36834061e-06,1.10668729e-05,2.81211469e-05,5.04309971e-05,7.61832601e-05,0.000103802852
4.55,1.37069767e-06,1.1071425e-05,2.8124993e-05,5.04369143e-05,7.61957004e-05,0.000103858956
4.6,1.37323417e-06,1.10763867e-05,2.8128938e-05,5.04427338e-05,7.6207649e-05,0.000103908643
4.65,1.37596298e-06,1.10818061e-05,2.81330093e-05,5.04484631e-05,7.62191505e-05,0.000103952987
4.7,1.37889747e-06,1.1087735e-05,2.81372379e-05,5.04541098e-05,7.6230244e-05,0.000103992864
4.75,1.38205152e-06,1.10942288e-05,2.81416594e-05,5.04596818e-05,7.62409638e-05,0.000104028984
4.8,1.38543947e-06,1.11013467e-05,2.81463141e-05,5.04651878e-05,7.62513405e-05,0.000104061924
4.85,1.38907618e-06,1.11091518e-05,2.81512473e-05,5.04706374e-05,7.62614008e-05,0.000104092154
4.9,1.39297696e-06,1.11177111e-05,2.815651e-05,5.04760416e-05,7.62711689e-05,0.000104120059
4.95,1.39715761e-06,1.11270956e-05,2.81621592e-05,5.0481413e-05,7.62806663e-05,0.000104145954
5.0,1.40163439e-06,1.11373805e-05,2.81682579e-05,5.04867661e-05,7.62899124e-05,0.000104170102
5.05,1.406424e-06,1.11486448e-05,2.81748761e-05,5.0492118e-05,7.62989245e-05,0.000104192722
5.1,1.4115436e-06,1.11609718e-05,2.81820908e-05,5.04974888e-05,7.63077187e-05,0.000104213997
5.15,1.41701076e-06,1.1174449e-05,2.81899866e-05,5.05029018e-05,7.63163094e-05,0.000104234081
5.2,1.42284348e-06,1.11891678e-05,2.81986556e-05,5.05083845e-05,7.632471e-05,0.000104253107
5.25,1.42906018e-06,1.12052239e-05,2.82081982e-05,5.05139689e-05,7.63329331e-05,0.000104271185
5.3,1.43567965e-06,1.12227171e-05,2.82187234e-05,5.05196923e-05,7.63409904e-05,0.000104288414
5.35,1.44272109e-06,1.12417512e-05,2.82303488e-05,5.05255976e-05,7.63488933e-05,0.000104304875
5.4,1.45020405e-06,1.12624342e-05,2.8243201e-05,5.05317343e-05,7.63566531e-05,0.000104320641
5.45,1.45814844e-06,1.1284878e-05,2.8257416e-05,5.0538159e-05,7.63642811e-05,0.000104335776
5.5,1.46657452e-06,1.13091987e-05,2.82731393e-05,5.05449362e-05,7.63717893e-05,0.000104350335
5.55,1.47550286e-06,1.1335516e-05,2.8290526e-05,5.05521389e-05,7.63791901e-05,0.000104364367
5.6,1.48495436e-06,1.13639537e-05,2.83097413e-05,5.05598494e-05,7.63864974e-05,0.000104377914
5.65,1.49495022e-06,1.13946395e-05,2.83309603e-05,5.056816e-05,7.63937268e-05,0.000104391015
5.7,1.50551191e-06,1.14277044e-05,2.83543685e-05,5.05771736e-05,7.64008959e-05,0.000104403704
5.75,1.51666118e-06,1.14632835e-05,2.83801614e-05,5.05870047e-05,7.64080253e-05,0.000104416012
5.8,1.52842003e-06,1.15015151e-05,2.84085452e-05,5.05977795e-05,7.64151387e-05,0.000104427966
5.85,1.54081071e-06,1.15425413e-05,2.84397363e-05,5.06096375e-05,7.6422264e-05,0.000104439591
5.9,1.55385569e-06,1.15865072e-05,2.84739616e-05,5.06227311e-05,7.64294339e-05,0.00010445091
5.95,1.56757763e-06,1.16335614e-05,2.85114585e-05,5.0637227e-05,7.64366867e-05,0.000104461942
6.0,1.58199942e-06,1.16838556e-05,2.85524749e-05,5.06533065e-05,7.64440669e-05,0.000104472707
6.05,1.5971441e-06,1.17375445e-05,2.85972689e-05,5.0671166e-05,7.64516267e-05,0.000104483223
6.1,1.6130349e-06,1.17947858e-05,2.86461092e-05,5.06910178e-05,7.64594262e-05,0.000104493506
6.15,1.62969519e-06,1.18557398e-05,2.86992745e-05,5.07130903e-05,7.6467535e-05,0.000104503571
6.2,1.64714849e-06,1.19205698e-05,2.87570535e-05,5.07376285e-05,7.64760328e-05,0.000104513435
6.25,1.66541841e-06,1.19894415e-05,2.88197453e-05,5.07648946e-05,7.64850106e-05,0.000104523113
6.3,1.68452871e-06,1.20625231e-05,2.88876584e-05,5.07951681e-05,7.64945719e-05,0.00010453262
6.35,1.70450323e-06,1.21399851e-05,2.89611112e-05,5.08287465e-05,7.65048333e-05,0.000104541974
6.4,1.72536589e-06,1.22220001e-05,2.90404315e-05,5.08659449e-05,7.65159263e-05,0.000104551193
6.45,1.74714068e-06,1.2308743e-05,2.91259562e-05,5.09070971e-05,7.65279976e-05,0.000104560297
6.5,1.76985164e-06,1.24003904e-05,2.92180315e-05,5.09525551e-05,7.65412108e-05,0.00010456931
6.55,1.79352287e-06,1.2497121e-05,2.93170121e-05,5.10026894e-05,7.6555747e-05,0.000104578257
6.6,1.81817849e-06,1.25991149e-05,2.94232614e-05,5.10578893e-05,7.65718062e-05,0.000104587171
