vds,vb1,vb2,vb3,vb4,vb5,vb6
0.0,-1.0397994e-26,-8.63260539e-25,-1.21338894e-24,-4.54521365e-25,-4.31432444e-25,6.144607770000001e-25
0.05,1.52691424e-06,4.9142682e-06,7.47192716e-06,9.35469869e-06,1.0680192e-05,1.15645312e-05
0.1,2.76940893e-06,9.51895151e-06,1.46381167e-05,1.84187703e-05,2.1091105e-05,2.28836649e-05
0.15,3.74436631e-06,1.3829317e-05,2.15131757e-05,2.72059808e-05,3.12456878e-05,3.39696436e-05
0.2,4.46326343e-06,1.78527895e-05,2.81041483e-05,3.57227485e-05,4.11496933e-05,4.48276153e-05
0.25,4.94412523e-06,2.15947e-05,3.44160244e-05,4.39734822e-05,5.0806901e-05,5.54607798e-05
0.3,5.22736921e-06,2.50597878e-05,4.04531989e-05,5.19620131e-05,6.02205283e-05,6.58717879e-05
0.35,5.383506e-06,2.82525996e-05,4.62198584e-05,5.96919779e-05,6.93936123e-05,7.60631204e-05
0.4,5.47875051e-06,3.11776047e-05,5.17200842e-05,6.71669218e-05,7.83291122e-05,8.60371914e-05
0.45,5.54709494e-06,3.38392462e-05,5.695788e-05,7.43903262e-05,8.70299372e-05,9.57963762e-05
0.5,5.60175005e-06,3.62419888e-05,6.19371807e-05,8.13656167e-05,9.54989544e-05,0.000105343019
0.55,5.64812069e-06,3.83903969e-05,6.66618551e-05,8.80961653e-05,0.000103738991,0.000114679434
0.6,5.68882244e-06,4.02892802e-05,7.11357085e-05,9.45852921e-05,0.000111752836,0.00012380791
0.65,5.72533104e-06,4.19439843e-05,7.53624841e-05,0.000100836266,0.00011954324,0.000132730705
0.7,5.75857783e-06,4.33609934e-05,7.93458654e-05,0.000106852304,0.000127112913,0.000141450052
0.75,5.78919815e-06,4.45491734e-05,8.30894775e-05,0.000112636574,0.000134464532,0.000149968154
0.8,5.81764986e-06,4.55221142e-05,8.65968899e-05,0.000118192195,0.000141600733,0.000158287188
0.85,5.84427635e-06,4.63014207e-05,8.98716195e-05,0.000123522237,0.000148524117,0.000166409307
0.9,5.86934312e-06,4.69183303e-05,9.29171336e-05,0.000128629719,0.00015523725,0.000174336634
0.95,5.89306033e-06,4.74094966e-05,9.5736856e-05,0.000133517615,0.000161742661,0.000182071266
1.0,5.91559761e-06,4.78086988e-05,9.83341764e-05,0.000138188849,0.000168042842,0.000189615277
1.05,5.93709406e-06,4.81417316e-05,0.000100712468,0.000142646293,0.000174140253,0.000196970713
1.1,5.95766526e-06,4.84264513e-05,0.000102875129,0.000146892774,0.000180037317,0.000204139594
1.15,5.97740841e-06,4.86749091e-05,0.000104825674,0.00015093106,0.000185736423,0.000211123918
1.2,5.99640606e-06,4.88953454e-05,0.00010656796,0.000154763867,0.000191239927,0.000217925655
1.25,6.01472893e-06,4.90935511e-05,0.00010810671,0.000158393846,0.000196550147,0.000224546753
1.3,6.03243813e-06,4.92737184e-05,0.000109448618,0.000161823576,0.000201669369,0.000230989133
1.35,6.04958677e-06,4.94389679e-05,0.000110604171,0.000165055548,0.000206599842,0.000237254696
1.4,6.06622137e-06,4.95916803e-05,0.000111589494,0.000168092145,0.000211343777,0.000243345314
1.45,6.0823829e-06,4.97337112e-05,0.000112426377,0.000170935606,0.000215903348,0.00024926284
1.5,6.0981076e-06,4.98665341e-05,0.000113139506,0.000173587974,0.000220280686,0.000255009099
1.55,6.11342771e-06,4.99913381e-05,0.000113752628,0.000176051035,0.000224477878,0.000260585895
1.6,6.12837204e-06,5.01090963e-05,0.000114286024,0.000178326231,0.000228496957,0.000265995006
1.65,6.14296645e-06,5.02206155e-05,0.000114755843,0.000180414615,0.000232339897,0.000271238187
1.7,6.1572342e-06,5.03265712e-05,0.000115174525,0.000182316939,0.000236008601,0.000276317166
1.75,6.17119634e-06,5.04275354e-05,0.000115551569,0.000184034151,0.000239504878,0.000281233645
1.8,6.18487194e-06,5.05239961e-05,0.00011589425,0.000185568604,0.00024283042,0.000285989298
1.85,6.19827836e-06,5.06163733e-05,0.0001162082,0.000186926029,0.00024598676,0.000290585772
1.9,6.21143143e-06,5.07050309e-05,0.000116497829,0.000188117355,0.000248975219,0.000295024676
1.95,6.22434564e-06,5.07902863e-05,0.000116766641,0.000189158877,0.000251796816,0.000299307589
2.0,6.23703428e-06,5.0872418e-05,0.000117017456,0.000190070258,0.000254452162,0.000303436042
2.05,6.24950957e-06,5.09516718e-05,0.000117252568,0.000190871659,0.000256941317,0.000307411521
2.1,6.2617828e-06,5.10282654e-05,0.000117473869,0.000191581523,0.000259263648,0.000311235449
2.15,6.2738644e-06,5.11023929e-05,0.000117682934,0.000192215569,0.000261417782,0.000314909176
2.2,6.28576403e-06,5.1174228e-05,0.000117881087,0.000192786677,0.000263401831,0.000318433954
2.25,6.2974907e-06,5.12439266e-05,0.000118069449,0.000193305204,0.000265214198,0.00032181091
2.3,6.30905282e-06,5.13116292e-05,0.000118248981,0.000193779435,0.000266855116,0.000325040999
2.35,6.32045828e-06,5.1377463e-05,0.00011842051,0.000194216009,0.000268328584,0.000328124948
2.4,6.3317145e-06,5.14415434e-05,0.000118584751,0.00019462028,0.000269643634,0.00033106317
2.45,6.34282854e-06,5.15039756e-05,0.000118742331,0.000194996598,0.000270813995,0.000333855651
2.5,6.35380712e-06,5.15648554e-05,0.000118893797,0.000195348528,0.000271856276,0.000336501803
2.55,6.36465671e-06,5.16242707e-05,0.000119039635,0.000195679023,0.000272787729,0.000339000314
2.6,6.37538361e-06,5.16823022e-05,0.000119180272,0.000195990544,0.000273624557,0.000341349023
2.65,6.38599399e-06,5.17390242e-05,0.000119316091,0.000196285165,0.000274381035,0.000343544967
2.7,6.39649398e-06,5.17945053e-05,0.000119447434,0.000196564645,0.000275069276,0.000345584773
2.75,6.40688975e-06,5.18488089e-05,0.000119574608,0.000196830488,0.000275699355,0.000347465624
2.8,6.41718756e-06,5.19019943e-05,0.000119697888,0.000197083988,0.000276279582,0.000349186752
2.85,6.42739389e-06,5.19541166e-05,0.000119817525,0.000197326267,0.000276816793,0.000350751006
2.9,6.43751546e-06,5.20052274e-05,0.000119933746,0.000197558302,0.000277316633,0.000352165671
2.95,6.4475594e-06,5.20553756e-05,0.000120046756,0.00019778095,0.000277783778,0.000353442023
3.0,6.45753327e-06,5.21046074e-05,0.000120156744,0.000197994965,0.000278222133,0.000354593883
3.05,6.46744517e-06,5.21529672e-05,0.000120263883,0.000198201017,0.000278634973,0.000355635912
3.1,6.4773039e-06,5.22004977e-05,0.00012036833,0.0001983997,0.000279025072,0.000356582254
3.15,6.48711896e-06,5.22472407e-05,0.000120470231,0.000198591544,0.000279394786,0.000357445749
3.2,6.49690074e-06,5.22932374e-05,0.000120569721,0.000198777026,0.00027974614,0.000358237622
3.25,6.50666058e-06,5.23385289e-05,0.000120666924,0.000198956573,0.000280080875,0.000358967474
3.3,6.51641087e-06,5.23831573e-05,0.000120761956,0.000199130572,0.000280400504,0.00035964342
3.35,6.5261652e-06,5.24271653e-05,0.000120854925,0.000199299375,0.000280706347,0.000360272289
3.4,6.5359384e-06,5.24705977e-05,0.000120945933,0.000199463299,0.00028099956,0.000360859826
3.45,6.54574673e-06,5.25135018e-05,0.000121035076,0.000199622635,0.000281281165,0.000361410873
3.5,6.55560788e-06,5.25559276e-05,0.000121122445,0.000199777648,0.000281552062,0.000361929532
3.55,6.56554117e-06,5.25979293e-05,0.000121208129,0.000199928582,0.000281813057,0.000362419289
3.6,6.5755676e-06,5.26395654e-05,0.000121292213,0.00020007566,0.000282064866,0.000362883124
3.65,6.58570994e-06,5.26808997e-05,0.000121374779,0.000200219089,0.000282308132,0.000363323602
3.7,6.59599285e-06,5.27220022e-05,0.000121455913,0.00020035906,0.000282543434,0.000363742939
3.75,6.60644295e-06,5.27629494e-05,0.000121535697,0.000200495749,0.000282771293,0.000364143058
3.8,6.61708893e-06,5.28038259e-05,0.000121614219,0.000200629323,0.000282992184,0.000364525642
3.85,6.6279616e-06,5.28447243e-05,0.000121691568,0.000200759936,0.000283206535,0.000364892167
3.9,6.63909397e-06,5.28857467e-05,0.000121767837,0.000200887735,0.000283414739,0.000365243935
3.95,6.65052137e-06,5.29270052e-05,0.000121843129,0.00020101286,0.000283617153,0.000365582098
4.0,6.66228144e-06,5.2968623e-05,0.00012191755,0.000201135443,0.000283814105,0.000365907682
4.05,6.67441423e-06,5.30107346e-05,0.000121991218,0.000201255613,0.000284005898,0.000366221603
4.1,6.68696228e-06,5.30534871e-05,0.000122064262,0.000201373499,0.000284192807,0.000366524682
4.15,6.69997059e-06,5.3097041e-05,0.000122136822,0.000201489226,0.000284375091,0.000366817657
4.2,6.71348676e-06,5.31415705e-05,0.000122209054,0.000201602921,0.000284552988,0.000367101196
4.25,6.72756092e-06,5.31872645e-05,0.000122281129,0.000201714716,0.000284726719,0.000367375901
4.3,6.74224586e-06,5.32343274e-05,0.000122353237,0.000201824745,0.000284896494,0.000367642321
4.35,6.75759699e-06,5.32829794e-05,0.000122425587,0.000201933151,0.000285062508,0.000367900955
4.4,6.77367236e-06,5.33334573e-05,0.00012249841,0.000202040088,0.000285224947,0.00036815226
4.45,6.7905327e-06,5.3386015e-05,0.00012257196,0.000202145718,0.000285383989,0.000368396652
4.5,6.8082414e-06,5.34409243e-05,0.000122646518,0.000202250223,0.000285539808,0.000368634517
4.55,6.82686454e-06,5.34984747e-05,0.000122722389,0.000202353796,0.000285692572,0.000368866207
4.6,6.84647082e-06,5.35589746e-05,0.000122799911,0.000202456656,0.000285842449,0.000369092048
4.65,6.86713164e-06,5.36227511e-05,0.000122879449,0.00020255904,0.000285989607,0.000369312343
4.7,6.888921e-06,5.36901507e-05,0.000122961402,0.000202661213,0.00028613422,0.000369527375
4.75,6.91191553e-06,5.37615393e-05,0.000123046202,0.000202763469,0.000286276468,0.000369737405
4.8,6.93619443e-06,5.38373025e-05,0.000123134317,0.000202866131,0.000286416538,0.000369942682
4.85,6.96183946e-06,5.39178461e-05,0.000123226253,0.00020296956,0.000286554634,0.00037014344
4.9,6.9889349e-06,5.40035955e-05,0.000123322551,0.000203074152,0.000286690972,0.000370339902
4.95,7.01756751e-06,5.40949966e-05,0.000123423793,0.000203180346,0.00028682579,0.000370532283
5.0,7.04782647e-06,5.41925151e-05,0.000123530603,0.000203288621,0.000286959349,0.000370720794
5.05,7.07980338e-06,5.42966372e-05,0.000123643645,0.000203399506,0.000287091935,0.000370905642
5.1,7.11359213e-06,5.44078688e-05,0.000123763624,0.000203513577,0.000287223868,0.000371087034
5.15,7.14928893e-06,5.45267358e-05,0.000123891291,0.000203631465,0.0002873555,0.000371265182
5.2,7.1869922e-06,5.46537839e-05,0.000124027439,0.000203753852,0.000287487222,0.000371440303
5.25,7.22680251e-06,5.47895783e-05,0.000124172907,0.000203881479,0.000287619471,0.000371612627
5.3,7.26882258e-06,5.49347037e-05,0.000124328577,0.000204015148,0.000287752729,0.000371782396
5.35,7.31315711e-06,5.50897636e-05,0.000124495379,0.000204155721,0.000287887531,0.000371949871
5.4,7.35991282e-06,5.52553802e-05,0.000124674285,0.000204304123,0.000288024466,0.000372115338
5.45,7.40919832e-06,5.54321942e-05,0.000124866315,0.000204461348,0.000288164184,0.000372279108
5.5,7.46112405e-06,5.56208641e-05,0.000125072534,0.000204628455,0.0002883074,0.000372441525
5.55,7.51580222e-06,5.58220661e-05,0.000125294052,0.000204806573,0.000288454897,0.00037260297
5.6,7.57334675e-06,5.60364933e-05,0.000125532024,0.000204996901,0.000288607529,0.000372763867
5.65,7.63387315e-06,5.62648555e-05,0.00012578765,0.000205200711,0.000288766227,0.000372924686
5.7,7.69749851e-06,5.65078788e-05,0.000126062175,0.000205419344,0.000288932,0.00037308595
5.75,7.76434138e-06,5.67663044e-05,0.000126356886,0.000205654219,0.000289105942,0.000373248241
5.8,7.8345217e-06,5.70408891e-05,0.000126673114,0.000205906824,0.000289289231,0.000373412204
5.85,7.90816076e-06,5.73324038e-05,0.000127012233,0.000206178726,0.000289483135,0.000373578553
5.9,7.98538109e-06,5.76416335e-05,0.000127375656,0.000206471562,0.000289689014,0.000373748077
5.95,8.06630639e-06,5.79693763e-05,0.000127764839,0.000206787045,0.000289908322,0.000373921645
6.0,8.15106147e-06,5.83164433e-05,0.000128181276,0.000207126962,0.000290142609,0.00037410021
6.05,8.23977216e-06,5.86836574e-05,0.0001286265,0.000207493174,0.000290393524,0.000374284816
6.1,8.33256527e-06,5.90718531e-05,0.000129102081,0.000207887612,0.000290662816,0.000374476602
6.15,8.42956846e-06,5.94818758e-05,0.000129609625,0.000208312283,0.000290952334,0.000374676808
6.2,8.53091023e-06,5.99145809e-05,0.000130150771,0.000208769261,0.000291264033,0.000374886777
6.25,8.63671979e-06,6.03708335e-05,0.000130727195,0.000209260692,0.000291599966,0.00037510796
6.3,8.74712705e-06,6.08515075e-05,0.000131340602,0.000209788789,0.000291962295,0.000375341924
6.35,8.86226249e-06,6.13574852e-05,0.000131992728,0.000210355834,0.000292353282,0.000375590349
6.4,8.98225715e-06,6.18896564e-05,0.00013268534,0.000210964172,0.000292775295,0.000375855036
6.45,9.1072425e-06,6.24489178e-05,0.000133420229,0.000211616212,0.000293230804,0.000376137909
6.5,9.23735044e-06,6.30361727e-05,0.000134199215,0.000212314424,0.000293722381,0.000376441018
6.55,9.37271318e-06,6.36523297e-05,0.000135024143,0.000213061339,0.000294252702,0.000376766538
6.6,9.5134632e-06,6.42983028e-05,0.000135896878,0.000213859544,0.000294824542,0.000377116777
