vds,vb1,vb2,vb3,vb4,vb5,vb6
0.0,-2.79281852e-22,3.90311296e-26,-3.79840283e-25,-7.583151830000001e-25,-1.00517468e-24,-7.31981997e-25
0.05,1.62382135e-06,4.7677085e-06,7.39363216e-06,9.48525584e-06,1.10742173e-05,1.22242607e-05
0.1,2.89489343e-06,9.17841801e-06,1.44451559e-05,1.86467379e-05,2.18437059e-05,2.41622557e-05
0.15,3.92532172e-06,1.33433115e-05,2.12653458e-05,2.75948708e-05,3.24186078e-05,3.59239101e-05
0.2,4.7446732e-06,1.72907828e-05,2.78825032e-05,3.63578578e-05,4.28270341e-05,4.75372556e-05
0.25,5.36326762e-06,2.10283713e-05,3.43041137e-05,4.49431202e-05,5.30763395e-05,5.90095858e-05
0.3,5.79081242e-06,2.45583664e-05,4.05324108e-05,5.33528273e-05,6.31686278e-05,7.03429444e-05
0.35,6.04799788e-06,2.78817389e-05,4.65683018e-05,6.15878214e-05,7.31046744e-05,8.15380457e-05
0.4,6.17762441e-06,3.09991327e-05,5.24123594e-05,6.96486086e-05,8.28849183e-05,9.25952673e-05
0.45,6.23565618e-06,3.39111165e-05,5.80650703e-05,7.75356092e-05,9.25097123e-05,0.000103514901
0.5,6.26262132e-06,3.66182515e-05,6.35268993e-05,8.52492211e-05,0.000101979388,0.000114297216
0.55,6.27713062e-06,3.91211145e-05,6.87983045e-05,9.27898357e-05,0.000111294268,0.000124942477
0.6,6.28631121e-06,4.14203136e-05,7.38797418e-05,0.000100157842,0.000120454677,0.000135450944
0.65,6.2929483e-06,4.35165086e-05,7.87716659e-05,0.000107353627,0.000129460935,0.000145822879
0.7,6.29823701e-06,4.54104446e-05,8.34745307e-05,0.000114377578,0.000138313362,0.000156058542
0.75,6.30274484e-06,4.71030099e-05,8.79887893e-05,0.000121230079,0.000147012277,0.000166158191
0.8,6.30676664e-06,4.85953412e-05,9.23148947e-05,0.000127911514,0.000155557999,0.000176122085
0.85,6.31046764e-06,4.98890206e-05,9.64532997e-05,0.000134422266,0.000163950846,0.000185950483
0.9,6.31394646e-06,5.09864515e-05,0.000100404458,0.000140762718,0.000172191134,0.000195643641
0.95,6.31726512e-06,5.18915811e-05,0.000104168822,0.000146933249,0.000180279179,0.000205201817
1.0,6.32046443e-06,5.26112442e-05,0.00010774685,0.00015293424,0.000188215296,0.000214625267
1.05,6.32357224e-06,5.31573853e-05,0.000111139,0.000158766068,0.0001959998,0.000223914245
1.1,6.32660819e-06,5.35497577e-05,0.000114345734,0.000164429111,0.000203633003,0.000233069008
1.15,6.32958653e-06,5.38169016e-05,0.000117367524,0.000169923746,0.000211115218,0.000242089809
1.2,6.33251785e-06,5.39923321e-05,0.00012020485,0.000175250346,0.000218446756,0.000250976903
1.25,6.33541019e-06,5.41070328e-05,0.000122858208,0.000180409287,0.000225627929,0.000259730541
1.3,6.33826976e-06,5.41841101e-05,0.00012532812,0.00018540094,0.000232659046,0.000268350977
1.35,6.34110146e-06,5.42384055e-05,0.000127615142,0.000190225678,0.000239540415,0.000276838462
1.4,6.34390918e-06,5.42787516e-05,0.000129719889,0.000194883872,0.000246272346,0.000285193248
1.45,6.3466961e-06,5.43102976e-05,0.000131643068,0.00019937589,0.000252855145,0.000293415584
1.5,6.3494648e-06,5.43360825e-05,0.000133385532,0.000203702102,0.000259289118,0.000301505722
1.55,6.35221742e-06,5.4357951e-05,0.000134948375,0.000207862874,0.00026557457,0.00030946391
1.6,6.35495576e-06,5.43770615e-05,0.000136333091,0.000211858574,0.000271711806,0.000317290397
1.65,6.35768133e-06,5.43941667e-05,0.000137541853,0.000215689569,0.000277701129,0.000324985431
1.7,6.36039542e-06,5.44097722e-05,0.000138577966,0.000219356222,0.000283542842,0.00033254926
1.75,6.36309914e-06,5.44242279e-05,0.000139446618,0.0002228589,0.000289237245,0.000339982129
1.8,6.36579344e-06,5.44377824e-05,0.000140155944,0.000226197969,0.000294784639,0.000347284285
1.85,6.36847915e-06,5.4450617e-05,0.00014071827,0.000229373795,0.000300185324,0.000354455974
1.9,6.37115699e-06,5.44628667e-05,0.000141150916,0.000232386749,0.000305439596,0.000361497441
1.95,6.37382761e-06,5.44746341e-05,0.000141475559,0.000235237204,0.000310547754,0.000368408928
2.0,6.37649158e-06,5.44859984e-05,0.000141715727,0.000237925541,0.000315510093,0.000375190681
2.05,6.37914939e-06,5.44970218e-05,0.000141893429,0.000240452152,0.000320326907,0.00038184294
2.1,6.3818015e-06,5.45077539e-05,0.000142026727,0.00024281745,0.000324998489,0.000388365949
2.15,6.38444834e-06,5.45182347e-05,0.000142129062,0.000245021874,0.000329525132,0.000394759949
2.2,6.38709029e-06,5.45284968e-05,0.000142209845,0.000247065912,0.000333907124,0.00040102518
2.25,6.38972772e-06,5.45385673e-05,0.000142275467,0.000248950128,0.000338144756,0.000407161882
2.3,6.392361e-06,5.45484685e-05,0.000142330235,0.000250675207,0.000342238314,0.000413170294
2.35,6.39499049e-06,5.45582192e-05,0.000142377073,0.00025224203,0.000346188083,0.000419050654
2.4,6.39761658e-06,5.45678356e-05,0.000142417992,0.000253651797,0.000349994347,0.0004248032
2.45,6.40023969e-06,5.45773312e-05,0.000142454399,0.000254906226,0.000353657387,0.000430428167
2.5,6.40286032e-06,5.45867177e-05,0.000142487301,0.000256007861,0.000357177481,0.000435925792
2.55,6.40547903e-06,5.45960054e-05,0.000142517431,0.000256960537,0.000360554907,0.00044129631
2.6,6.40809649e-06,5.4605203e-05,0.000142545331,0.00025777001,0.00036378994,0.000446539953
2.65,6.41071353e-06,5.46143183e-05,0.000142571413,0.000258444664,0.000366882852,0.000451656955
2.7,6.41333116e-06,5.46233581e-05,0.000142595992,0.000258996059,0.000369833914,0.000456647548
2.75,6.41595059e-06,5.46323284e-05,0.000142619312,0.000259438894,0.000372643394,0.000461511961
2.8,6.41857331e-06,5.46412347e-05,0.000142641568,0.000259790084,0.000375311561,0.000466250424
2.85,6.42120112e-06,5.46500818e-05,0.000142662915,0.000260067086,0.000377838683,0.000470863164
2.9,6.42383623e-06,5.46588741e-05,0.000142683478,0.00026028613,0.000380225035,0.000475350409
2.95,6.42648124e-06,5.46676157e-05,0.00014270336,0.000260461011,0.000382470899,0.000479712383
3.0,6.42913929e-06,5.46763104e-05,0.000142722647,0.000260602689,0.000384576571,0.00048394931
3.05,6.43181407e-06,5.4684962e-05,0.000142741408,0.000260719479,0.000386542381,0.00048806141
3.1,6.43450992e-06,5.46935742e-05,0.000142759704,0.000260817531,0.000388368706,0.000492048903
3.15,6.43723193e-06,5.47021509e-05,0.000142777585,0.00026090134,0.00039005601,0.000495912006
3.2,6.43998597e-06,5.47106961e-05,0.000142795093,0.000260974187,0.000391604899,0.000499650933
3.25,6.44277882e-06,5.47192145e-05,0.000142812267,0.000261038481,0.000393016209,0.000503265897
3.3,6.44561823e-06,5.47277114e-05,0.000142829137,0.000261096008,0.000394291144,0.000506757106
3.35,6.44851302e-06,5.4736193e-05,0.000142845732,0.000261148108,0.000395431492,0.000510124765
3.4,6.45147317e-06,5.47446667e-05,0.000142862076,0.000261195798,0.000396439925,0.000513369077
3.45,6.45450989e-06,5.47531417e-05,0.00014287819,0.00026123986,0.000397320405,0.000516490237
3.5,6.45763575e-06,5.47616287e-05,0.000142894094,0.000261280904,0.000398078633,0.000519488439
3.55,6.46086471e-06,5.4770141e-05,0.000142909803,0.000261319411,0.000398722457,0.00052236387
3.6,6.46421228e-06,5.47786947e-05,0.000142925334,0.000261355764,0.000399261999,0.000525116712
3.65,6.46769552e-06,5.47873088e-05,0.000142940699,0.000261390272,0.000399709354,0.00052774714
3.7,6.47133322e-06,5.47960066e-05,0.000142955911,0.000261423188,0.000400077785,0.000530255324
3.75,6.47514588e-06,5.48048153e-05,0.000142970981,0.000261454719,0.000400380641,0.000532641427
3.8,6.47915586e-06,5.48137676e-05,0.000142985921,0.000261485036,0.00040063034,0.00053490561
3.85,6.48338743e-06,5.48229012e-05,0.000143000741,0.000261514285,0.00040083769,0.000537048028
3.9,6.48786683e-06,5.48322608e-05,0.000143015452,0.000261542585,0.000401011639,0.000539068841
3.95,6.49262234e-06,5.48418976e-05,0.000143030065,0.00026157004,0.000401159326,0.000540968217
4.0,6.49768433e-06,5.48518709e-05,0.000143044591,0.000261596738,0.000401286327,0.000542746349
4.05,6.50308535e-06,5.48622483e-05,0.000143059045,0.000261622755,0.000401396942,0.000544403475
4.1,6.50886013e-06,5.48731069e-05,0.000143073441,0.000261648156,0.000401494473,0.00054593992
4.15,6.51504566e-06,5.48845335e-05,0.000143087797,0.000261672998,0.000401581461,0.00054735615
4.2,6.5216812e-06,5.48966261e-05,0.000143102135,0.000261697332,0.000401659868,0.000548652866
4.25,6.52880835e-06,5.49094942e-05,0.000143116482,0.0002617212,0.000401731221,0.000549831143
4.3,6.53647104e-06,5.49232594e-05,0.000143130867,0.000261744642,0.000401796718,0.000550892626
4.35,6.54471556e-06,5.49380569e-05,0.000143145329,0.000261767692,0.000401857309,0.000551839787
4.4,6.55359059e-06,5.49540353e-05,0.000143159914,0.000261790381,0.000401913752,0.000552676238
4.45,6.5631472e-06,5.49713579e-05,0.000143174675,0.000261812736,0.000401966657,0.000553407031
4.5,6.57343886e-06,5.49902035e-05,0.000143189677,0.000261834783,0.000402016523,0.00055403887
4.55,6.58452142e-06,5.50107664e-05,0.000143204999,0.000261856544,0.000402063759,0.000554580097
4.6,6.59645313e-06,5.50332578e-05,0.000143220729,0.000261878042,0.000402108701,0.000555040391
4.65,6.60929462e-06,5.50579058e-05,0.000143236975,0.000261899297,0.000402151631,0.000555430188
4.7,6.62310888e-06,5.50849561e-05,0.00014325386,0.000261920331,0.000402192787,0.000555759976
4.75,6.63796122e-06,5.51146727e-05,0.000143271525,0.000261941162,0.000402232369,0.000556039647
4.8,6.65391929e-06,5.51473383e-05,0.000143290135,0.000261961815,0.000402270546,0.000556278039
4.85,6.67105302e-06,5.51832544e-05,0.000143309876,0.000261982313,0.000402307466,0.000556482727
4.9,6.68943458e-06,5.5222742e-05,0.000143330958,0.000262002684,0.000402343254,0.000556660001
4.95,6.70913836e-06,5.52661417e-05,0.000143353621,0.000262022959,0.000402378019,0.000556814977
5.0,6.73024093e-06,5.53138143e-05,0.000143378132,0.000262043175,0.000402411856,0.000556951765
5.05,6.75282096e-06,5.53661405e-05,0.00014340479,0.000262063378,0.000402444849,0.000557073639
5.1,6.77695924e-06,5.54235214e-05,0.000143433925,0.000262083622,0.00040247707,0.00055718321
5.15,6.80273854e-06,5.54863787e-05,0.000143465905,0.000262103969,0.000402508584,0.000557282556
5.2,6.83024365e-06,5.55551545e-05,0.000143501132,0.0002621245,0.000402539449,0.000557373343
5.25,6.85956125e-06,5.56303113e-05,0.000143540049,0.000262145307,0.000402569715,0.00055745691
5.3,6.89077988e-06,5.57123323e-05,0.000143583139,0.000262166501,0.000402599429,0.000557534342
5.35,6.92398989e-06,5.58017211e-05,0.000143630924,0.000262188214,0.000402628632,0.000557606522
5.4,6.95928336e-06,5.58990014e-05,0.000143683975,0.000262210604,0.000402657363,0.000557674175
5.45,6.99675406e-06,5.60047171e-05,0.000143742904,0.000262233852,0.000402685657,0.000557737902
5.5,7.03649733e-06,5.61194322e-05,0.000143808372,0.000262258172,0.000402713549,0.0005577982
5.55,7.07861008e-06,5.62437302e-05,0.000143881085,0.00026228381,0.000402741071,0.000557855489
5.6,7.1231907e-06,5.63782139e-05,0.000143961801,0.000262311049,0.000402768256,0.00055791012
5.65,7.17033896e-06,5.65235054e-05,0.000144051326,0.000262340214,0.000402795139,0.000557962392
5.7,7.22015599e-06,5.66802452e-05,0.000144150518,0.000262371673,0.000402821756,0.000558012561
5.75,7.27274417e-06,5.68490924e-05,0.000144260285,0.000262405843,0.000402848148,0.000558060846
5.8,7.3282071e-06,5.70307239e-05,0.000144381588,0.00026244319,0.000402874364,0.000558107436
5.85,7.38664947e-06,5.7225834e-05,0.000144515441,0.000262484238,0.000402900456,0.000558152494
5.9,7.44817708e-06,5.7435134e-05,0.000144662912,0.000262529568,0.000402926492,0.000558196164
5.95,7.51289668e-06,5.76593517e-05,0.000144825118,0.000262579826,0.000402952547,0.000558238572
6.0,7.58091595e-06,5.7899231e-05,0.000145003235,0.000262635721,0.000402978717,0.000558279826
6.05,7.65234343e-06,5.81555311e-05,0.000145198489,0.000262698033,0.000403005113,0.000558320024
6.1,7.72728843e-06,5.84290262e-05,0.000145412158,0.000262767614,0.000403031871,0.000558359254
6.15,7.805861e-06,5.87205048e-05,0.000145645577,0.000262845392,0.000403059151,0.00055839759
6.2,7.8881718e-06,5.9030769e-05,0.00014590013,0.000262932374,0.000403087145,0.000558435104
6.25,7.9743321e-06,5.93606343e-05,0.000146177253,0.000263029647,0.000403116079,0.000558471857
6.3,8.06445369e-06,5.97109286e-05,0.000146478437,0.000263138384,0.000403146218,0.000558507906
6.35,8.15864879e-06,6.0082492e-05,0.000146805218,0.000263259843,0.000403177873,0.000558543304
6.4,8.25703003e-06,6.04761756e-05,0.000147159188,0.00026339537,0.000403211403,0.0005585781
6.45,8.35971036e-06,6.08928415e-05,0.000147541983,0.000263546403,0.000403247221,0.000558612341
6.5,8.466803e-06,6.13333617e-05,0.00014795529,0.000263714472,0.000403285803,0.000558646075
6.55,8.57842137e-06,6.17986179e-05,0.000148400841,0.000263901198,0.000403327687,0.000558679348
6.6,8.69467905e-06,6.22895006e-05,0.000148880415,0.0002641083,0.000403373486,0.000558712212
