vds,vb1,vb2,vb3,vb4,vb5,vb6
0.0,-2.0561826200000002e-25,-1.42336322e-23,1.28978736e-23,-3.51426866e-24,9.742185739999999e-24,7.698547980000001e-21
0.05,1.45036564e-05,4.84216077e-05,7.38905932e-05,9.24592635e-05,0.000105332959,0.000113722926
0.1,2.6167534e-05,9.37228365e-05,0.000144697087,0.000181991344,0.000207961486,0.000224989925
0.15,3.51659826e-05,0.00013605792,0.000212566475,0.000268734189,0.00030801484,0.000333922835
0.2,4.16279513e-05,0.000175503048,0.00027757074,0.000352753032,0.000405551167,0.000440573421
0.25,4.57765841e-05,0.000212113478,0.000339761365,0.000434093101,0.000500608989,0.000544974092
0.3,4.81095328e-05,0.000245938521,0.000399183855,0.000512793835,0.000593221209,0.000647151771
0.35,4.93842046e-05,0.000277025531,0.000455881592,0.000588892701,0.000683418909,0.000747131671
0.4,5.01878068e-05,0.000305421091,0.000509896865,0.00066242623,0.000771232379,0.000844938333
0.45,5.07822213e-05,0.00033117156,0.000561271153,0.000733430293,0.000856691401,0.000940595903
0.5,5.12658224e-05,0.000354323637,0.000610045208,0.00080194018,0.000939825324,0.00103412821
0.55,5.16800481e-05,0.000374925313,0.000656259089,0.000867990629,0.00102066309,0.0011255588
0.6,5.20457552e-05,0.000393027693,0.000699952181,0.000931615835,0.00109923325,0.00121491093
0.65,5.23750842e-05,0.000408688725,0.000741163209,0.000992849458,0.00117556395,0.00130220757
0.7,5.2675865e-05,0.000421981058,0.00077993026,0.00105172463,0.00124968295,0.0013874714
0.75,5.29535197e-05,0.000433008164,0.000816290797,0.00110827395,0.00132161763,0.00147072486
0.8,5.32119961e-05,0.000441933037,0.000850281674,0.00116252952,0.00139139498,0.00155199009
0.85,5.34542779e-05,0.000449011267,0.000881939164,0.00121452291,0.00145904163,0.00163128895
0.9,5.36826846e-05,0.000454589818,0.000911298978,0.00126428518,0.00152458381,0.00170864306
0.95,5.38990606e-05,0.000459040516,0.000938396309,0.00131184687,0.0015880474,0.00178407375
1.0,5.41048997e-05,0.000462678804,0.000963265916,0.00135723799,0.00164945792,0.00185760209
1.05,5.43014302e-05,0.000465733421,0.000985942309,0.00140048804,0.0017088405,0.00192924891
1.1,5.44896754e-05,0.000468359473,0.00100646025,0.00144162592,0.00176621992,0.00199903475
1.15,5.46704974e-05,0.00047066142,0.00102485606,0.00148067998,0.0018216206,0.00206697991
1.2,5.48446298e-05,0.000472711108,0.00104117101,0.00151767785,0.00187506659,0.00213310445
1.25,5.50127019e-05,0.000474559422,0.00105545933,0.00155264646,0.00192658157,0.00219742814
1.3,5.51752583e-05,0.000476243489,0.00106780414,0.0015856118,0.00197618884,0.00225997054
1.35,5.53327729e-05,0.000477791137,0.00107833934,0.00161659873,0.00202391132,0.00232075093
1.4,5.54856613e-05,0.000479223723,0.0010872624,0.00164563065,0.0020697715,0.00237978837
1.45,5.56342895e-05,0.000480557977,0.0010948184,0.00167272892,0.00211379147,0.00243710164
1.5,5.57789821e-05,0.000481807244,0.00110126068,0.00169791218,0.00215599279,0.00249270929
1.55,5.59200277e-05,0.000482982333,0.00110681548,0.00172119537,0.00219639653,0.0025466296
1.6,5.60576846e-05,0.000484092119,0.00111166681,0.00174258887,0.00223502308,0.00259888061
1.65,5.61921846e-05,0.000485143978,0.00111595726,0.00176209862,0.0022718921,0.00264948009
1.7,5.63237365e-05,0.000486144107,0.00111979534,0.00177972965,0.00230702228,0.00269844551
1.75,5.64525293e-05,0.000487097759,0.00112326358,0.00179549669,0.0023404311,0.00274579407
1.8,5.65787344e-05,0.000488009428,0.00112642525,0.00180944384,0.00237213435,0.00279154266
1.85,5.67025077e-05,0.000488882987,0.00112932946,0.00182166669,0.0024021456,0.00283570779
1.9,5.68239918e-05,0.0004897218,0.00113201486,0.00183232023,0.00243047526,0.00287830563
1.95,5.69433169e-05,0.000490528801,0.00113451226,0.00184160241,0.00245712942,0.00291935186
2.0,5.70606027e-05,0.000491306571,0.00113684657,0.00184972363,0.0024821083,0.00295886166
2.05,5.71759593e-05,0.000492057389,0.00113903816,0.00185688028,0.00250540459,0.00299684956
2.1,5.72894883e-05,0.000492783278,0.00114110387,0.00186324123,0.0025270027,0.00303332927
2.15,5.74012838e-05,0.000493486041,0.00114305779,0.00186894506,0.00254688077,0.00306831349
2.2,5.7511433e-05,0.000494167294,0.00114491178,0.00187410296,0.00256501863,0.00310181351
2.25,5.76200172e-05,0.000494828489,0.00114667593,0.00187880348,0.00258141401,0.00313383881
2.3,5.77271124e-05,0.000495470935,0.00114835892,0.0018831172,0.00259610341,0.00316439635
2.35,5.78327899e-05,0.00049609582,0.00114996821,0.00188710071,0.00260917672,0.00319348967
2.4,5.7937117e-05,0.000496704219,0.00115151029,0.00189079973,0.00262077439,0.0032211176
2.45,5.80401577e-05,0.000497297115,0.00115299086,0.00189425155,0.00263106822,0.00324727272
2.5,5.8141973e-05,0.000497875404,0.0011544149,0.00189748687,0.00264023728,0.00327193967
2.55,5.82426219e-05,0.000498439907,0.00115578682,0.0019005312,0.00264844955,0.00329509389
2.6,5.83421618e-05,0.000498991381,0.00115711055,0.00190340591,0.00265585259,0.00331670237
2.65,5.84406493e-05,0.00049953052,0.00115838959,0.00190612908,0.00266257106,0.00333672845
2.7,5.85381406e-05,0.000500057967,0.00115962705,0.0019087161,0.00266870818,0.00335514287
2.75,5.86346924e-05,0.00050057432,0.00116082576,0.00191118016,0.00267434869,0.00337194033
2.8,5.87303628e-05,0.000501080133,0.00116198826,0.00191353268,0.00267956203,0.00338715573
2.85,5.88252116e-05,0.000501575925,0.00116311684,0.00191578356,0.00268440528,0.00340087102
2.9,5.89193015e-05,0.000502062183,0.00116421359,0.00191794148,0.00268892559,0.00341320838
2.95,5.90126986e-05,0.000502539368,0.00116528041,0.00192001404,0.00269316216,0.00342431365
3.0,5.91054735e-05,0.000503007918,0.00116631905,0.00192200798,0.0026971478,0.00343433835
3.05,5.91977023e-05,0.000503468255,0.00116733109,0.00192392926,0.0027009102,0.00344342637
3.1,5.92894669e-05,0.000503920785,0.00116831799,0.00192578321,0.00270447285,0.00345170675
3.15,5.93808567e-05,0.000504365909,0.00116928111,0.00192757458,0.00270785585,0.00345929125
3.2,5.94719689e-05,0.000504804024,0.00117022169,0.00192930767,0.00271107649,0.00346627476
3.25,5.956291e-05,0.000505235529,0.00117114089,0.00193098633,0.00271414973,0.00347273705
3.3,5.96537964e-05,0.000505660829,0.00117203978,0.00193261404,0.00271708861,0.00347874498
3.35,5.97447553e-05,0.000506080345,0.00117291938,0.00193419398,0.00271990456,0.00348435459
3.4,5.98359262e-05,0.000506494516,0.00117378064,0.00193572902,0.0027226076,0.00348961299
3.45,5.99274613e-05,0.000506903807,0.00117462446,0.00193722181,0.00272520662,0.00349455999
3.5,6.00195265e-05,0.000507308716,0.00117545171,0.00193867474,0.00272770951,0.00349922936
3.55,6.01123029e-05,0.00050770978,0.00117626321,0.00194009004,0.00273012331,0.00350364995
3.6,6.0205987e-05,0.000508107582,0.00117705978,0.00194146974,0.00273245432,0.00350784653
3.65,6.03007919e-05,0.000508502758,0.00117784224,0.00194281573,0.0027347082,0.00351184046
3.7,6.03969483e-05,0.000508896008,0.00117861138,0.00194412975,0.00273689005,0.00351565032
3.75,6.04947049e-05,0.000509288099,0.00117936803,0.00194541343,0.00273900451,0.00351929229
3.8,6.05943297e-05,0.000509679874,0.00118011305,0.0019466683,0.00274105575,0.00352278059
3.85,6.06961102e-05,0.000510072262,0.00118084732,0.00194789578,0.00274304761,0.00352612772
3.9,6.08003545e-05,0.000510466284,0.00118157178,0.00194909724,0.00274498357,0.00352934477
3.95,6.09073917e-05,0.000510863061,0.00118228745,0.00195027398,0.00274686681,0.00353244159
4.0,6.10175726e-05,0.000511263823,0.00118299542,0.00195142726,0.00274870029,0.00353542697
4.05,6.11312702e-05,0.000511669913,0.00118369688,0.00195255831,0.00275048668,0.00353830879
4.1,6.12488801e-05,0.0005120828,0.00118439315,0.00195366835,0.0027522285,0.00354109414
4.15,6.13708209e-05,0.000512504082,0.00118508566,0.0019547586,0.00275392805,0.0035437894
4.2,6.14975351e-05,0.000512935493,0.00118577601,0.00195583031,0.00275558749,0.00354640035
4.25,6.16294884e-05,0.000513378914,0.00118646595,0.00195688478,0.00275720884,0.00354893225
4.3,6.17671709e-05,0.000513836372,0.00118715742,0.00195792337,0.002758794,0.00355138988
4.35,6.19110969e-05,0.000514310055,0.00118785256,0.00195894754,0.00276034477,0.00355377761
4.4,6.20618048e-05,0.00051480231,0.00118855375,0.00195995882,0.00276186286,0.00355609943
4.45,6.22198579e-05,0.000515315652,0.00118926357,0.00196095893,0.00276334996,0.00355835901
4.5,6.23858435e-05,0.000515852769,0.00118998489,0.00196194972,0.00276480769,0.00356055974
4.55,6.25603738e-05,0.000516416523,0.00119072083,0.00196293322,0.00276623766,0.00356270474
4.6,6.27440852e-05,0.000517009959,0.00119147482,0.00196391168,0.00276764152,0.00356479689
4.65,6.29376384e-05,0.000517636305,0.00119225058,0.00196488762,0.00276902091,0.00356683891
4.7,6.31417182e-05,0.000518298974,0.00119305215,0.00196586378,0.00277037757,0.0035688333
4.75,6.33570335e-05,0.00051900157,0.00119388392,0.00196684324,0.00277171332,0.00357078243
4.8,6.35843167e-05,0.000519747888,0.00119475062,0.00196782939,0.00277303009,0.00357268855
4.85,6.38243235e-05,0.000520541915,0.00119565735,0.00196882598,0.00277432997,0.0035745538
4.9,6.40778329e-05,0.000521387831,0.00119660959,0.00196983715,0.00277561525,0.00357638024
4.95,6.43456462e-05,0.000522290011,0.00119761319,0.00197086745,0.00277688843,0.00357816989
5.0,6.46285873e-05,0.000523253023,0.00119867441,0.00197192188,0.00277815226,0.00357992475
5.05,6.49275017e-05,0.00052428163,0.00119979992,0.0019730059,0.0027794098,0.00358164682
5.1,6.52432563e-05,0.000525380787,0.0012009968,0.00197412549,0.00278066444,0.00358333813
5.15,6.55767388e-05,0.000526555641,0.00120227257,0.00197528714,0.00278191995,0.00358500081
5.2,6.59288574e-05,0.000527811528,0.00120363515,0.00197649788,0.00278318051,0.00358663706
5.25,6.63005397e-05,0.000529153971,0.00120509292,0.00197776532,0.00278445074,0.00358824925
5.3,6.66927329e-05,0.000530588681,0.00120665467,0.00197909768,0.0027857358,0.00358983992
5.35,6.71064026e-05,0.000532121547,0.00120832965,0.00198050377,0.00278704135,0.00359141186
5.4,6.75425324e-05,0.000533758639,0.00121012756,0.00198199304,0.00278837365,0.00359296809
5.45,6.80021234e-05,0.000535506204,0.00121205851,0.0019835756,0.00278973955,0.00359451198
5.5,6.84861932e-05,0.000537370658,0.00121413307,0.00198526222,0.0027911466,0.00359604726
5.55,6.89957758e-05,0.000539358584,0.00121636225,0.00198706435,0.00279260302,0.00359757805
5.6,6.95319204e-05,0.00054147673,0.00121875749,0.00198899413,0.00279411775,0.00359910896
5.65,7.00956912e-05,0.000543732,0.00122133065,0.0019910644,0.00279570052,0.00360064511
5.7,7.06881662e-05,0.000546131452,0.00122409403,0.0019932887,0.00279736185,0.00360219219
5.75,7.1310437e-05,0.000548682292,0.00122706034,0.00199568129,0.00279911309,0.00360375649
5.8,7.19636081e-05,0.00055139187,0.00123024271,0.00199825716,0.00280096646,0.003605345
5.85,7.26487958e-05,0.00055426767,0.00123365467,0.002001032,0.00280293504,0.00360696542
5.9,7.33671279e-05,0.000557317309,0.00123731015,0.00200402221,0.00280503285,0.00360862623
5.95,7.41197429e-05,0.000560548532,0.00124122344,0.00200724494,0.00280727482,0.00361033675
6.0,7.49077892e-05,0.0005639692,0.00124540925,0.00201071802,0.00280967684,0.00361210716
6.05,7.57324249e-05,0.00056758729,0.0012498826,0.00201446,0.00281225575,0.00361394857
6.1,7.65948163e-05,0.000571410887,0.00125465892,0.00201849012,0.00281502941,0.00361587306
6.15,7.74961382e-05,0.000575448176,0.00125975394,0.0020228283,0.00281801662,0.00361789373
6.2,7.84375723e-05,0.000579707438,0.00126518373,0.00202749517,0.0028212372,0.00362002473
6.25,7.94203074e-05,0.000584197044,0.00127096466,0.00203251199,0.00282471198,0.00362228129
6.3,8.04455381e-05,0.000588925447,0.00127711343,0.00203790067,0.00282846278,0.00362467978
6.35,8.15144646e-05,0.000593901176,0.00128364701,0.00204368377,0.00283251242,0.00362723773
6.4,8.26282917e-05,0.000599132833,0.00129058263,0.00204988447,0.00283688471,0.00362997384
6.45,8.37882286e-05,0.000604629081,0.0012979378,0.00205652652,0.00284160448,0.00363290805
6.5,8.49954881e-05,0.000610398642,0.00130573024,0.00206363426,0.00284669751,0.0036360615
6.55,8.62512857e-05,0.000616450292,0.00131397794,0.0020712326,0.00285219055,0.00363945659
6.6,8.75568396e-05,0.000622792849,0.00132269907,0.00207934697,0.00285811133,0.00364311701
