vds,vb1,vb2,vb3,vb4,vb5,vb6
0.0,-8.2194819999999995e-22,-3.76625531e-26,1.57130063e-25,-5.842566420000001e-25,-6.60697725e-25,5.6609191200000005e-25
0.05,8.14524683e-07,2.38512267e-06,3.69738973e-06,4.74303919e-06,5.53778761e-06,6.11338716e-06
0.1,1.45275718e-06,4.59184482e-06,7.22378687e-06,9.3242189e-06,1.09232107e-05,1.20836203e-05
0.15,1.97074797e-06,6.67576257e-06,1.0634585e-05,1.3798759e-05,1.62113485e-05,1.79656707e-05
0.2,2.38326967e-06,8.65107471e-06,1.39439367e-05,1.81807628e-05,2.14162584e-05,2.37735559e-05
0.25,2.6954476e-06,1.05215523e-05,1.7155586e-05,2.24739422e-05,2.65416186e-05,2.95109236e-05
0.3,2.91202858e-06,1.22883414e-05,2.02706509e-05,2.66793829e-05,3.1588482e-05,3.51787962e-05
0.35,3.04307609e-06,1.3951929e-05,2.32895865e-05,3.07975071e-05,3.65572371e-05,4.07775316e-05
0.4,3.10957598e-06,1.55126381e-05,2.62126802e-05,3.4828569e-05,4.14481044e-05,4.63073195e-05
0.45,3.13944946e-06,1.69707546e-05,2.9040177e-05,3.877278e-05,4.62612614e-05,5.17683065e-05
0.5,3.15330515e-06,1.832656e-05,3.17723103e-05,4.263034e-05,5.09968743e-05,5.71606283e-05
0.55,3.16072768e-06,1.95803437e-05,3.44093105e-05,4.64014458e-05,5.56551065e-05,6.24844175e-05
0.6,3.16540294e-06,2.07324104e-05,3.69514069e-05,5.00862932e-05,6.02361201e-05,6.77398056e-05
0.65,3.16877034e-06,2.17830901e-05,3.9398828e-05,5.36850768e-05,6.47400764e-05,7.29269237e-05
0.7,3.17144614e-06,2.27327546e-05,4.1751802e-05,5.71979909e-05,6.91671366e-05,7.80459026e-05
0.75,3.17372229e-06,2.35818458e-05,4.40105568e-05,6.06252291e-05,7.35174612e-05,8.30968726e-05
0.8,3.17575014e-06,2.43309271e-05,4.61753199e-05,6.39669845e-05,7.77912103e-05,8.8079964e-05
0.85,3.17761433e-06,2.49807797e-05,4.82463189e-05,6.72234496e-05,8.19885437e-05,9.29953064e-05
0.9,3.17936532e-06,2.55325853e-05,5.02237817e-05,7.03948163e-05,8.61096206e-05,9.78430293e-05
0.95,3.1810348e-06,2.59882785e-05,5.21079363e-05,7.34812761e-05,9.01545998e-05,0.000102623262
1.0,3.18264358e-06,2.63512035e-05,5.38990119e-05,7.64830198e-05,9.41236399e-05,0.000107336133
1.05,3.18420587e-06,2.66272048e-05,5.55972388e-05,7.94002375e-05,9.80168987e-05,0.000111981771
1.1,3.18573167e-06,2.68259768e-05,5.72028497e-05,8.22331189e-05,0.000101834534,0.000116560304
1.15,3.18722823e-06,2.69616124e-05,5.87160805e-05,8.49818532e-05,0.000105576702,0.000121071861
1.2,3.18870094e-06,2.70508039e-05,6.01371722e-05,8.76466289e-05,0.000109243561,0.000125516568
1.25,3.19015388e-06,2.71091236e-05,6.14663736e-05,9.02276339e-05,0.000112835265,0.000129894553
1.3,3.19159021e-06,2.71482734e-05,6.27039452e-05,9.27250557e-05,0.000116351972,0.000134205943
1.35,3.19301243e-06,2.71758065e-05,6.38501656e-05,9.5139081e-05,0.000119793836,0.000138450864
1.4,3.1944225e-06,2.7196229e-05,6.49053415e-05,9.74698962e-05,0.000123161012,0.000142629443
1.45,3.19582203e-06,2.72121698e-05,6.58698239e-05,9.97176869e-05,0.000126453655,0.000146741807
1.5,3.19721234e-06,2.72251795e-05,6.67440358e-05,0.000101882638,0.000129671918,0.000150788079
1.55,3.19859451e-06,2.72361991e-05,6.75285179e-05,0.000103964935,0.000132815955,0.000154768387
1.6,3.19996946e-06,2.72458186e-05,6.82240065e-05,0.000105964762,0.000135885919,0.000158682854
1.65,3.20133795e-06,2.72544211e-05,6.88315681e-05,0.000107882302,0.000138881963,0.000162531606
1.7,3.20270063e-06,2.72622636e-05,6.93528242e-05,0.000109717739,0.000141804237,0.000166314767
1.75,3.20405807e-06,2.72695239e-05,6.97903154e-05,0.000111471257,0.000144652895,0.000170032461
1.8,3.20541074e-06,2.72763283e-05,7.01480291e-05,0.00011314304,0.000147428086,0.000173684812
1.85,3.20675907e-06,2.72827686e-05,7.04320207e-05,0.00011473327,0.000150129962,0.000177271943
1.9,3.20810342e-06,2.72889134e-05,7.065083e-05,0.000116242135,0.000152758671,0.000180793978
1.95,3.20944413e-06,2.72948144e-05,7.08152052e-05,0.000117669821,0.000155314364,0.000184251038
2.0,3.21078146e-06,2.7300512e-05,7.09368846e-05,0.00011901652,0.000157797188,0.000187643246
2.05,3.21211569e-06,2.73060375e-05,7.10269169e-05,0.000120282426,0.000160207293,0.000190970725
2.1,3.21344704e-06,2.7311416e-05,7.10944169e-05,0.000121467747,0.000162544824,0.000194233596
2.15,3.21477573e-06,2.73166678e-05,7.11461929e-05,0.000122572701,0.000164809929,0.00019743198
2.2,3.21610194e-06,2.73218093e-05,7.11870218e-05,0.000123597532,0.000167002753,0.000200565999
2.25,3.21742587e-06,2.73268542e-05,7.12201522e-05,0.000124542518,0.000169123442,0.000203635772
2.3,3.2187477e-06,2.73318138e-05,7.12477746e-05,0.000125407998,0.00017117214,0.00020664142
2.35,3.22006762e-06,2.73366976e-05,7.12713749e-05,0.000126194407,0.00017314899,0.000209583062
2.4,3.22138581e-06,2.73415136e-05,7.12919749e-05,0.000126902334,0.000175054135,0.000212460819
2.45,3.2227025e-06,2.73462689e-05,7.13102901e-05,0.000127532622,0.000176887714,0.000215274808
2.5,3.22401792e-06,2.73509692e-05,7.13268312e-05,0.000128086518,0.00017864987,0.000218025148
2.55,3.22533237e-06,2.73556198e-05,7.13419698e-05,0.000128565901,0.000180340741,0.000220711958
2.6,3.22664618e-06,2.7360225e-05,7.13559814e-05,0.000128973595,0.000181960464,0.000223335354
2.65,3.22795976e-06,2.73647889e-05,7.13690742e-05,0.00012931372,0.000183509177,0.000225895454
2.7,3.22927361e-06,2.73693147e-05,7.13814075e-05,0.000129591976,0.000184987015,0.000228392374
2.75,3.23058835e-06,2.73738055e-05,7.13931056e-05,0.000129815641,0.000186394112,0.00023082623
2.8,3.23190473e-06,2.73782642e-05,7.14042666e-05,0.000129993126,0.000187730604,0.000233197136
2.85,3.23322363e-06,2.73826931e-05,7.1414969e-05,0.000130133157,0.000188996625,0.000235505209
2.9,3.23454617e-06,2.73870944e-05,7.14252762e-05,0.000130243881,0.000190192312,0.00023775056
2.95,3.23587366e-06,2.73914701e-05,7.14352402e-05,0.00013033225,0.000191317804,0.000239933304
3.0,3.23720765e-06,2.73958224e-05,7.14449039e-05,0.000130403801,0.000192373251,0.000242053553
3.05,3.23855e-06,2.74001529e-05,7.1454303e-05,0.000130462743,0.000193358814,0.000244111417
3.1,3.2399029e-06,2.74044636e-05,7.14634676e-05,0.000130512193,0.000194274681,0.000246107006
3.15,3.24126888e-06,2.74087563e-05,7.14724231e-05,0.000130554429,0.00019512108,0.000248040431
3.2,3.24265089e-06,2.74130332e-05,7.14811912e-05,0.000130591115,0.000195898308,0.000249911799
3.25,3.24405234e-06,2.74172966e-05,7.14897906e-05,0.000130623474,0.000196606775,0.000251721215
3.3,3.2454771e-06,2.74215491e-05,7.14982375e-05,0.00013065241,0.00019724707,0.000253468786
3.35,3.2469296e-06,2.74257938e-05,7.15065458e-05,0.000130678602,0.000197820069,0.000255154613
3.4,3.24841486e-06,2.74300344e-05,7.15147278e-05,0.000130702565,0.000198327081,0.000256778799
3.45,3.24993849e-06,2.74342754e-05,7.15227942e-05,0.000130724696,0.00019877005,0.000258341442
3.5,3.25150681e-06,2.74385222e-05,7.15307546e-05,0.000130745303,0.000199151779,0.000259842639
3.55,3.25312682e-06,2.74427814e-05,7.15386174e-05,0.000130764629,0.000199476138,0.000261282483
3.6,3.25480631e-06,2.74470609e-05,7.15463901e-05,0.000130782869,0.000199748134,0.000262661066
3.65,3.25655385e-06,2.74513704e-05,7.15540798e-05,0.000130800178,0.000199973774,0.000263978476
3.7,3.25837886e-06,2.74557213e-05,7.15616925e-05,0.000130816684,0.000200159667,0.000265234797
3.75,3.26029165e-06,2.74601273e-05,7.1569234e-05,0.000130832492,0.000200312493,0.000266430112
3.8,3.26230346e-06,2.74646045e-05,7.15767099e-05,0.000130847689,0.000200438484,0.0002675645
3.85,3.26442647e-06,2.74691718e-05,7.15841255e-05,0.000130862347,0.000200543081,0.000268638038
3.9,3.26667386e-06,2.74738514e-05,7.1591486e-05,0.000130876528,0.000200630795,0.000269650806
3.95,3.26905984e-06,2.7478669e-05,7.15987971e-05,0.000130890283,0.000200705232,0.000270602886
4.0,3.27159969e-06,2.74836539e-05,7.16060647e-05,0.000130903656,0.000200769211,0.000271494372
4.05,3.27430975e-06,2.748884e-05,7.16132955e-05,0.000130916687,0.000200824906,0.000272325382
4.1,3.27720749e-06,2.74942656e-05,7.16204971e-05,0.000130929408,0.00020087399,0.000273096072
4.15,3.28031149e-06,2.74999742e-05,7.16276784e-05,0.000130941848,0.000200917746,0.00027380667
4.2,3.28364149e-06,2.75060146e-05,7.16348502e-05,0.000130954032,0.000200957168,0.000274457518
4.25,3.28721841e-06,2.75124413e-05,7.16420254e-05,0.000130965982,0.000200993029,0.000275049141
4.3,3.29106433e-06,2.75193152e-05,7.16492194e-05,0.000130977717,0.000201025934,0.000275582343
4.35,3.29520252e-06,2.75267037e-05,7.16564509e-05,0.000130989256,0.000201056363,0.000276058337
4.4,3.29965748e-06,2.7534681e-05,7.16637427e-05,0.000131000612,0.000201084699,0.0002764789
4.45,3.30445487e-06,2.75433287e-05,7.16711216e-05,0.000131011801,0.000201111252,0.000276846522
4.5,3.30962159e-06,2.75527359e-05,7.16786201e-05,0.000131022835,0.000201136272,0.000277164517
4.55,3.31518573e-06,2.7563e-05,7.16862763e-05,0.000131033725,0.000201159966,0.000277437024
4.6,3.32117659e-06,2.75742262e-05,7.16941355e-05,0.000131044483,0.000201182505,0.000277668857
4.65,3.32762466e-06,2.75865286e-05,7.17022502e-05,0.000131055119,0.00020120403,0.000277865223
4.7,3.33456163e-06,2.760003e-05,7.1710682e-05,0.000131065643,0.000201224662,0.000278031371
4.75,3.34202035e-06,2.76148623e-05,7.17195015e-05,0.000131076066,0.000201244501,0.000278172261
4.8,3.35003487e-06,2.76311667e-05,7.17287903e-05,0.000131086398,0.000201263633,0.000278292336
4.85,3.35864034e-06,2.76490941e-05,7.17386411e-05,0.000131096653,0.000201282132,0.000278395408
4.9,3.3678731e-06,2.76688049e-05,7.17491592e-05,0.000131106843,0.000201300061,0.000278484649
4.95,3.37777056e-06,2.76904694e-05,7.17604633e-05,0.000131116984,0.000201317476,0.000278562638
5.0,3.38837126e-06,2.77142679e-05,7.17726868e-05,0.000131127095,0.000201334424,0.000278631449
5.05,3.39971478e-06,2.77403909e-05,7.17859784e-05,0.000131137198,0.000201350947,0.000278692736
5.1,3.41184176e-06,2.77690389e-05,7.18005034e-05,0.00013114732,0.000201367082,0.000278747817
5.15,3.42479388e-06,2.7800423e-05,7.18164444e-05,0.000131157493,0.000201382861,0.000278797741
5.2,3.43861379e-06,2.78347641e-05,7.18340027e-05,0.000131167756,0.000201398314,0.000278843349
5.25,3.45334511e-06,2.78722937e-05,7.18533987e-05,0.000131178154,0.000201413466,0.000278885316
5.3,3.46903241e-06,2.79132535e-05,7.1874873e-05,0.000131188744,0.00020142834,0.000278924192
5.35,3.48572116e-06,2.79578954e-05,7.18986875e-05,0.000131199591,0.000201442958,0.000278960421
5.4,3.5034577e-06,2.80064814e-05,7.19251256e-05,0.000131210773,0.000201457338,0.00027899437
5.45,3.52228923e-06,2.80592839e-05,7.19544934e-05,0.00013122238,0.000201471499,0.00027902634
5.5,3.54226373e-06,2.81165849e-05,7.19871205e-05,0.000131234518,0.000201485457,0.000279056585
5.55,3.56342999e-06,2.81786764e-05,7.202336e-05,0.000131247311,0.000201499229,0.000279085314
5.6,3.58583752e-06,2.82458601e-05,7.20635897e-05,0.000131260899,0.000201512832,0.000279112705
5.65,3.60953656e-06,2.83184474e-05,7.21082124e-05,0.000131275443,0.000201526283,0.000279138909
5.7,3.634578e-06,2.83967589e-05,7.21576562e-05,0.000131291128,0.000201539599,0.000279164054
5.75,3.66101338e-06,2.84811245e-05,7.2212375e-05,0.000131308159,0.000201552803,0.000279188252
5.8,3.68889486e-06,2.8571883e-05,7.22728489e-05,0.000131326771,0.000201565916,0.000279211597
5.85,3.71827514e-06,2.86693819e-05,7.23395841e-05,0.000131347223,0.000201578967,0.000279234171
5.9,3.74920748e-06,2.87739774e-05,7.24131137e-05,0.000131369805,0.000201591988,0.000279256048
5.95,3.78174561e-06,2.88860338e-05,7.24939972e-05,0.00013139484,0.000201605016,0.000279277289
6.0,3.81594377e-06,2.90059236e-05,7.25828208e-05,0.00013142268,0.0002016181,0.000279297951
6.05,3.85185657e-06,2.91340269e-05,7.26801975e-05,0.000131453714,0.000201631295,0.000279318082
6.1,3.88953907e-06,2.92707313e-05,7.27867667e-05,0.000131488368,0.000201644667,0.000279337725
6.15,3.92904666e-06,2.94164316e-05,7.29031946e-05,0.000131527103,0.000201658297,0.000279356921
6.2,3.97043506e-06,2.95715295e-05,7.30301735e-05,0.000131570423,0.000201672281,0.000279375702
6.25,4.0137603e-06,2.97364334e-05,7.31684216e-05,0.00013161887,0.000201686729,0.000279394101
6.3,4.05907865e-06,2.99115578e-05,7.33186831e-05,0.000131673028,0.000201701775,0.000279412147
6.35,4.10644662e-06,3.00973235e-05,7.34817274e-05,0.000131733525,0.000201717573,0.000279429865
6.4,4.15592092e-06,3.02941567e-05,7.36583489e-05,0.000131801034,0.000201734301,0.000279447281
6.45,4.20755843e-06,3.05024892e-05,7.38493667e-05,0.000131876272,0.000201752165,0.000279464418
6.5,4.26141614e-06,3.07227578e-05,7.40556236e-05,0.000131960002,0.000201771402,0.0002794813
6.55,4.31755117e-06,3.09554039e-05,7.42779864e-05,0.000132053034,0.00020179228,0.00027949795
6.6,4.3760207e-06,3.12008737e-05,7.45173443e-05,0.000132156227,0.000201815104,0.000279514394
