vds,vb1,vb2,vb3,vb4,vb5,vb6
0.0,-2.22901745e-32,-6.4974299900000005e-31,-6.861304539999999e-32,3.2098372300000004e-30,6.51566077e-30,9.845148630000001e-21
0.05,1.57010736e-06,6.58844404e-06,1.03523652e-05,1.31308799e-05,1.50934981e-05,1.64057272e-05
0.1,2.74027976e-06,1.27296539e-05,2.02555591e-05,2.58295829e-05,2.97840401e-05,3.24436733e-05
0.15,3.52869626e-06,1.84323298e-05,2.97179114e-05,3.81034082e-05,4.40777192e-05,4.81187907e-05
0.2,3.98061376e-06,2.37050023e-05,3.87475853e-05,4.99595256e-05,5.79805344e-05,6.34359651e-05
0.25,4.2012126e-06,2.85560395e-05,4.73525767e-05,6.14049742e-05,7.14983885e-05,7.84000135e-05
0.3,4.31528013e-06,3.29936615e-05,5.5540716e-05,7.24466629e-05,8.46370894e-05,9.30156854e-05
0.35,4.3888833e-06,3.70259613e-05,6.33196689e-05,8.30913711e-05,9.74023498e-05,0.000107287662
0.4,4.44449265e-06,4.06609407e-05,7.06969378e-05,9.33457491e-05,0.000109799787,0.000121220558
0.45,4.4901056e-06,4.39065729e-05,7.7679863e-05,0.000103216319,0.000121834925,0.000134818918
0.5,4.52925695e-06,4.67709251e-05,8.42756237e-05,0.000112709474,0.00013351319,0.000148087221
0.55,4.56382591e-06,4.92624189e-05,9.04912377e-05,0.000121831481,0.000144839916,0.000161029877
0.6,4.59494684e-06,5.13904341e-05,9.63335601e-05,0.000130588482,0.000155820342,0.000173651226
0.65,4.62336591e-06,5.31667671e-05,0.000101809278,0.000138986493,0.000166459614,0.000185955545
0.7,4.64960436e-06,5.46090033e-05,0.000106924897,0.00014703141,0.000176762787,0.000197947039
0.75,4.67404268e-06,5.5746618e-05,0.000111686726,0.000154729002,0.000186734823,0.000209629849
0.8,4.69696812e-06,5.66261663e-05,0.000116100832,0.000162084918,0.000196380595,0.000221008049
0.85,4.7186034e-06,5.73061592e-05,0.000120172983,0.00016910468,0.00020570489,0.000232085649
0.9,4.73912492e-06,5.7842257e-05,0.000123908539,0.00017579368,0.000214712404,0.000242866593
0.95,4.75867497e-06,5.82771391e-05,0.000127312286,0.000182157171,0.000223407749,0.000253354762
1.0,4.77737006e-06,5.86400429e-05,0.000130388198,0.000188200251,0.000231795452,0.000263553976
1.05,4.79530685e-06,5.8950353e-05,0.000133139209,0.000193927841,0.000239879953,0.000273467993
1.1,4.81256646e-06,5.92210431e-05,0.000135567319,0.000199344648,0.000247665604,0.000283100511
1.15,4.82921762e-06,5.94610231e-05,0.000137675013,0.000204455102,0.000255156669,0.00029245517
1.2,4.84531914e-06,5.96765976e-05,0.000139469481,0.000209263267,0.000262357317,0.00030153555
1.25,4.86092167e-06,5.98723579e-05,0.000140969319,0.000213772696,0.000269271615,0.000310345175
1.3,4.8760692e-06,6.00517359e-05,0.000142208383,0.000217986208,0.000275903516,0.00031888751
1.35,4.89080017e-06,6.02173567e-05,0.00014323112,0.000221905555,0.000282256842,0.000327165961
1.4,4.90514834e-06,6.03712693e-05,0.000144082758,0.00022553095,0.000288335258,0.000335183878
1.45,4.91914357e-06,6.05151017e-05,0.000144802114,0.000228860495,0.000294142237,0.000342944545
1.5,4.93281235e-06,6.06501672e-05,0.000145419461,0.000231889775,0.000299680996,0.000350451185
1.55,4.94617833e-06,6.07775406e-05,0.000145957411,0.000234612352,0.00030495442,0.000357706949
1.6,4.95926268e-06,6.08981115e-05,0.000146432644,0.000237022477,0.000309964936,0.000364714911
1.65,4.97208446e-06,6.10126247e-05,0.00014685752,0.000239120827,0.000314714327,0.000371478057
1.7,4.98466085e-06,6.11217099e-05,0.00014724131,0.000240921006,0.000319203463,0.000377999271
1.75,4.99700742e-06,6.12259037e-05,0.00014759107,0.000242451585,0.000323431917,0.000384281311
1.8,5.00913831e-06,6.13256674e-05,0.000147912262,0.000243751188,0.00032739744,0.000390326783
1.85,5.02106642e-06,6.14214003e-05,0.000148209176,0.000244860524,0.000331095355,0.000396138094
1.9,5.03280353e-06,6.15134501e-05,0.000148485233,0.000245816415,0.000334518069,0.000401717395
1.95,5.04436044e-06,6.16021218e-05,0.000148743198,0.000246649346,0.000337655269,0.000407066493
2.0,5.05574708e-06,6.16876839e-05,0.000148985333,0.000247383424,0.000340495776,0.000412186724
2.05,5.06697259e-06,6.17703745e-05,0.000149213507,0.000248037343,0.000343031846,0.00041707878
2.1,5.07804543e-06,6.18504052e-05,0.000149429285,0.000248625546,0.000345265037,0.000421742448
2.15,5.08897345e-06,6.19279653e-05,0.000149633986,0.000249159236,0.000347210326,0.000426176266
2.2,5.09976394e-06,6.20032245e-05,0.000149828732,0.00024964718,0.00034889524,0.000430377057
2.25,5.11042372e-06,6.20763358e-05,0.000150014486,0.000250096314,0.000350354561,0.000434339388
2.3,5.12095921e-06,6.21474374e-05,0.000150192078,0.000250512188,0.000351624171,0.000438055083
2.35,5.13137644e-06,6.22166547e-05,0.000150362229,0.000250899291,0.000352736829,0.000441513131
2.4,5.14168117e-06,6.22841017e-05,0.000150525572,0.000251261296,0.000353720363,0.000444700631
2.45,5.15187889e-06,6.23498826e-05,0.000150682661,0.000251601238,0.0003545975,0.000447605459
2.5,5.16197492e-06,6.24140925e-05,0.000150833986,0.000251921648,0.000355386455,0.000450220661
2.55,5.17197446e-06,6.24768188e-05,0.000150979983,0.000252224658,0.000356101735,0.000452549008
2.6,5.18188262e-06,6.25381423e-05,0.00015112104,0.000252512077,0.000356754905,0.000454605082
2.65,5.19170452e-06,6.25981372e-05,0.000151257504,0.000252785452,0.000357355233,0.000456413489
2.7,5.20144535e-06,6.26568726e-05,0.000151389688,0.000253046114,0.000357910207,0.000458004407
2.75,5.21111041e-06,6.27144129e-05,0.000151517873,0.000253295218,0.00035842592,0.000459408969
2.8,5.2207052e-06,6.27708182e-05,0.000151642315,0.000253533771,0.000358907383,0.000460656084
2.85,5.2302355e-06,6.28261452e-05,0.000151763244,0.000253762654,0.000359358745,0.000461770936
2.9,5.23970743e-06,6.28804477e-05,0.000151880873,0.000253982647,0.000359783479,0.00046277467
2.95,5.24912754e-06,6.29337773e-05,0.000151995394,0.000254194437,0.000360184508,0.000463684698
3.0,5.25850287e-06,6.29861836e-05,0.000152106983,0.000254398638,0.000360564316,0.000464515235
3.05,5.26784107e-06,6.30377153e-05,0.000152215803,0.000254595797,0.000360925027,0.000465277873
3.1,5.27715046e-06,6.30884204e-05,0.000152322004,0.000254786405,0.000361268469,0.000465982083
3.15,5.2864401e-06,6.31383472e-05,0.000152425725,0.000254970903,0.000361596229,0.000466635649
3.2,5.29571993e-06,6.31875447e-05,0.000152527096,0.000255149691,0.000361909685,0.000467245003
3.25,5.3050008e-06,6.32360636e-05,0.000152626237,0.00025532313,0.000362210049,0.000467815498
3.3,5.31429458e-06,6.32839566e-05,0.000152723264,0.000255491549,0.000362498385,0.000468351626
3.35,5.32361428e-06,6.33312798e-05,0.000152818284,0.000255655248,0.000362775637,0.000468857174
3.4,5.33297408e-06,6.33780931e-05,0.000152911403,0.000255814501,0.000363042643,0.000469335367
3.45,5.34238946e-06,6.34244609e-05,0.00015300272,0.000255969559,0.00036330015,0.000469788961
3.5,5.35187727e-06,6.34704535e-05,0.000153092337,0.000256120655,0.000363548829,0.000470220331
3.55,5.36145578e-06,6.35161476e-05,0.00015318035,0.000256268004,0.000363789282,0.000470631536
3.6,5.37114484e-06,6.35616275e-05,0.000153266862,0.000256411804,0.000364022053,0.000471024367
3.65,5.38096586e-06,6.36069857e-05,0.000153351975,0.000256552242,0.000364247634,0.000471400395
3.7,5.39094195e-06,6.36523243e-05,0.000153435795,0.000256689493,0.000364466473,0.000471761
3.75,5.40109797e-06,6.36977556e-05,0.000153518437,0.000256823723,0.000364678976,0.000472107407
3.8,5.41146058e-06,6.37434034e-05,0.000153600021,0.000256955092,0.000364885517,0.000472440698
3.85,5.42205834e-06,6.37894037e-05,0.000153680679,0.000257083753,0.000365086435,0.000472761842
3.9,5.43292171e-06,6.38359057e-05,0.000153760553,0.000257209858,0.000365282047,0.000473071706
3.95,5.44408317e-06,6.38830731e-05,0.000153839799,0.000257333557,0.000365472641,0.000473371068
4.0,5.4555772e-06,6.39310844e-05,0.00015391859,0.000257455002,0.000365658488,0.000473660629
4.05,5.46744039e-06,6.39801345e-05,0.000153997117,0.000257574349,0.000365839839,0.000473941025
4.1,5.47971141e-06,6.4030435e-05,0.000154075591,0.000257691762,0.00036601693,0.000474212831
4.15,5.49243109e-06,6.40822155e-05,0.000154154245,0.000257807412,0.000366189984,0.000474476573
4.2,5.50564245e-06,6.4135724e-05,0.000154233338,0.000257921484,0.000366359215,0.000474732729
4.25,5.51939068e-06,6.41912279e-05,0.000154313157,0.000258034178,0.000366524829,0.000474981737
4.3,5.53372321e-06,6.42490148e-05,0.000154394016,0.000258145712,0.00036668703,0.000475224002
4.35,5.54868968e-06,6.43093928e-05,0.000154476264,0.000258256327,0.000366846017,0.000475459894
4.4,5.56434198e-06,6.43726916e-05,0.000154560281,0.000258366289,0.000367001993,0.000475689758
4.45,5.58073423e-06,6.44392625e-05,0.000154646486,0.000258475893,0.000367155168,0.000475913915
4.5,5.5979228e-06,6.45094793e-05,0.000154735335,0.000258585466,0.000367305756,0.000476132666
4.55,5.61596628e-06,6.45837387e-05,0.000154827325,0.000258695372,0.000367453989,0.000476346294
4.6,5.6349255e-06,6.46624605e-05,0.000154922996,0.000258806015,0.00036760011,0.000476555069
4.65,5.65486347e-06,6.47460881e-05,0.000155022932,0.000258917845,0.000367744388,0.00047675925
4.7,5.67584543e-06,6.48350884e-05,0.000155127762,0.000259031356,0.000367887114,0.000476959092
4.75,5.69793874e-06,6.49299526e-05,0.000155238165,0.000259147097,0.00036802861,0.000477154844
4.8,5.72121294e-06,6.50311958e-05,0.000155354868,0.000259265671,0.000368169231,0.000477346756
4.85,5.74573967e-06,6.51393573e-05,0.00015547865,0.00025938774,0.000368309374,0.000477535087
4.9,5.77159265e-06,6.52550005e-05,0.000155610341,0.00025951403,0.000368449479,0.0004777201
4.95,5.79884764e-06,6.53787131e-05,0.000155750824,0.000259645331,0.000368590038,0.000477902075
5.0,5.8275824e-06,6.55111067e-05,0.000155901038,0.000259782505,0.000368731597,0.000478081312
5.05,5.85787666e-06,6.56528167e-05,0.000156061975,0.000259926485,0.000368874762,0.000478258133
5.1,5.88981208e-06,6.58045024e-05,0.000156234685,0.00026007828,0.000369020208,0.000478432892
5.15,5.92347218e-06,6.59668463e-05,0.000156420272,0.000260238979,0.000369168678,0.000478605977
5.2,5.95894229e-06,6.61405541e-05,0.000156619898,0.00026040975,0.000369320995,0.000478777819
5.25,5.99630954e-06,6.63263542e-05,0.000156834782,0.000260591846,0.000369478063,0.000478948897
5.3,6.03566278e-06,6.65249974e-05,0.000157066201,0.000260786605,0.000369640873,0.000479119745
5.35,6.07709251e-06,6.67372563e-05,0.000157315485,0.000260995454,0.000369810508,0.000479290957
5.4,6.12069086e-06,6.6963925e-05,0.000157584026,0.000261219909,0.00036998815,0.000479463197
5.45,6.1665515e-06,6.72058185e-05,0.000157873269,0.000261461576,0.00037017508,0.000479637205
5.5,6.21476962e-06,6.74637721e-05,0.000158184715,0.000261722154,0.000370372687,0.0004798138
5.55,6.26544183e-06,6.7738641e-05,0.000158519923,0.000262003433,0.000370582469,0.000479993892
5.6,6.31866614e-06,6.80312994e-05,0.000158880503,0.000262307299,0.000370806039,0.000480178489
5.65,6.37454188e-06,6.83426402e-05,0.000159268122,0.000262635731,0.000371045125,0.0004803687
5.7,6.43316964e-06,6.8673574e-05,0.000159684497,0.000262990802,0.000371301578,0.000480565743
5.75,6.4946512e-06,6.90250286e-05,0.000160131397,0.000263374679,0.000371577371,0.000480770953
5.8,6.5590895e-06,6.93979484e-05,0.000160610644,0.000263789623,0.000371874601,0.00048098579
5.85,6.62658857e-06,6.97932935e-05,0.000161124106,0.000264237986,0.000372195496,0.000481211838
5.9,6.69725343e-06,7.02120389e-05,0.000161673701,0.000264722215,0.000372542411,0.000481450819
5.95,6.77119009e-06,7.06551739e-05,0.00016226139,0.000265244845,0.000372917832,0.000481704593
6.0,6.84850544e-06,7.11237016e-05,0.000162889184,0.000265808504,0.000373324377,0.000481975166
6.05,6.92930724e-06,7.16186374e-05,0.000163559131,0.000266415903,0.000373764796,0.000482264692
6.1,7.013704e-06,7.2141009e-05,0.000164273324,0.000267069845,0.00037424197,0.000482575479
6.15,7.10180498e-06,7.26918552e-05,0.000165033896,0.000267773212,0.000374758915,0.000482909994
6.2,7.1937201e-06,7.32722252e-05,0.000165843015,0.000268528972,0.000375318774,0.000483270862
6.25,7.28955987e-06,7.38831779e-05,0.000166702886,0.00026934017,0.000375924824,0.000483660873
6.3,7.38943537e-06,7.45257809e-05,0.00016761575,0.00027020993,0.000376580468,0.000484082984
6.35,7.49345818e-06,7.52011101e-05,0.000168583877,0.00027114145,0.000377289239,0.000484540316
6.4,7.60174032e-06,7.59102487e-05,0.00016960957,0.000272137998,0.000378054793,0.000485036163
6.45,7.71439418e-06,7.66542862e-05,0.000170695156,0.000273202914,0.000378880909,0.000485573985
6.5,7.83153251e-06,7.74343182e-05,0.000171842992,0.000274339601,0.000379771488,0.000486157414
6.55,7.95326833e-06,7.82514451e-05,0.000173055458,0.000275551524,0.000380730544,0.000486790251
6.6,8.07971489e-06,7.91067717e-05,0.000174334954,0.000276842211,0.000381762209,0.000487476466
