vds,vb1,vb2,vb3,vb4,vb5,vb6
0.0,8.52348483e-32,-7.05366328e-30,-1.0843697300000001e-29,-2.88403687e-29,4.7774338900000005e-29,9.36990132e-20
0.05,7.52107448e-06,3.28281422e-05,5.16958662e-05,6.55002181e-05,7.5122075e-05,8.14293629e-05
0.1,1.30294735e-05,6.33834753e-05,0.00010110905,0.000128808488,0.000148206665,0.000161005689
0.15,1.6630772e-05,9.17114859e-05,0.000148282809,0.000189962442,0.000219284954,0.000238754146
0.2,1.85996244e-05,0.000117856763,0.000193259533,0.000248999052,0.000288387652,0.000314699569
0.25,1.95293763e-05,0.000141863032,0.000236080741,0.000305954618,0.000355544982,0.000388866453
0.3,2.00201612e-05,0.000163773234,0.000276787087,0.000360864773,0.00042078669,0.000461278953
0.35,2.03464593e-05,0.000183629637,0.000315418366,0.000413764489,0.000484142039,0.000531960887
0.4,2.05971789e-05,0.000201474025,0.000352013515,0.000464688071,0.000545639814,0.000600935735
0.45,2.08046874e-05,0.000217348049,0.000386610622,0.000513669165,0.000605308317,0.000668226638
0.5,2.09837645e-05,0.000231293925,0.000419246917,0.000560740759,0.000663175373,0.000733856397
0.55,2.11424611e-05,0.000243355987,0.000449958774,0.000605935188,0.000719268326,0.000797847474
0.6,2.12857163e-05,0.000253584422,0.000478781682,0.000649284135,0.000773614047,0.000860221992
0.65,2.14168147e-05,0.000262044573,0.000505750203,0.000690818639,0.000826238932,0.000921001737
0.7,2.1538068e-05,0.000268838199,0.000530897884,0.000730569093,0.000877168912,0.000980208158
0.75,2.16511732e-05,0.000274138222,0.000554257102,0.000768565242,0.00092642945,0.00103786237
0.8,2.17574165e-05,0.000278206746,0.000575858795,0.000804836171,0.000974045553,0.00109398516
0.85,2.18577986e-05,0.000281349026,0.000595732008,0.000839410287,0.00102004177,0.00114859698
0.9,2.19531141e-05,0.00028383476,0.000613903149,0.000872315276,0.00106444221,0.00120171796
0.95,2.2044005e-05,0.000285860986,0.000630394838,0.000903578038,0.00110727052,0.00125336793
1.0,2.21309985e-05,0.000287559742,0.000645224399,0.00093322458,0.0011485499,0.00130356638
1.05,2.2214532e-05,0.000289018068,0.000658402771,0.000961279847,0.00118830309,0.0013523325
1.1,2.22949736e-05,0.000290294322,0.000669936951,0.000987767456,0.00122655236,0.00139968517
1.15,2.23726353e-05,0.000291428769,0.000679843137,0.00101270928,0.00126331948,0.00144564296
1.2,2.24477843e-05,0.000292450044,0.000688177251,0.00103612481,0.00129862571,0.00149022415
1.25,2.25206509e-05,0.000293379108,0.000695069796,0.00105803012,0.0013324917,0.00153344672
1.3,2.25914355e-05,0.000294231699,0.000700727607,0.00107843635,0.00136493744,0.00157532832
1.35,2.26603131e-05,0.000295019903,0.000705390577,0.00109734742,0.00139598212,0.0016158863
1.4,2.27274377e-05,0.000295753187,0.000709281321,0.00111475705,0.00142564396,0.00165513769
1.45,2.27929454e-05,0.000296439094,0.000712580096,0.00113064582,0.00145393992,0.00169309917
1.5,2.28569571e-05,0.000297083729,0.00071542311,0.00114498104,0.00148088534,0.00172978705
1.55,2.29195808e-05,0.000297692097,0.000717910614,0.00115772572,0.00150649329,0.00176521725
1.6,2.29809133e-05,0.000298268351,0.00072011622,0.00116886336,0.00153077371,0.00179940522
1.65,2.30410416e-05,0.000298815974,0.00072209449,0.00117843457,0.00155373211,0.00183236586
1.7,2.31000442e-05,0.000299337915,0.000723886457,0.00118656027,0.00157536765,0.00186411345
1.75,2.31579924e-05,0.000299836691,0.000725523489,0.00119342809,0.00159567054,0.00189466148
1.8,2.32149509e-05,0.000300314469,0.000727029958,0.00119925154,0.0016146188,0.0019240224
1.85,2.32709787e-05,0.000300773127,0.000728425096,0.00120423205,0.00163217526,0.00195220737
1.9,2.33261297e-05,0.000301214303,0.000729724298,0.00120853977,0.00164828734,0.0019792258
1.95,2.33804534e-05,0.000301639433,0.000730940055,0.00121231015,0.00166289437,0.00200508468
2.0,2.34339952e-05,0.000302049785,0.000732082616,0.00121564809,0.0016759477,0.00202978773
2.05,2.34867972e-05,0.000302446482,0.000733160492,0.00121863423,0.00168744149,0.00205333407
2.1,2.3538898e-05,0.000302830525,0.000734180814,0.0012213307,0.0016974386,0.0020757164
2.15,2.35903336e-05,0.000303202809,0.000735149615,0.00122378574,0.00170607174,0.00209691865
2.2,2.36411375e-05,0.000303564136,0.00073607204,0.00122603725,0.00171351821,0.00211691305
2.25,2.36913412e-05,0.000303915232,0.00073695251,0.00122811531,0.00171996628,0.0021356575
2.3,2.37409739e-05,0.00030425675,0.000737794849,0.00123004411,0.00172559019,0.00215309477
2.35,2.37900635e-05,0.000304589286,0.000738602388,0.0012318433,0.00173053876,0.00216915698
2.4,2.38386365e-05,0.00030491338,0.000739378043,0.00123352904,0.0017349335,0.00218377912
2.45,2.38867182e-05,0.000305229527,0.000740124383,0.00123511471,0.00173887152,0.00219692205
2.5,2.39343333e-05,0.000305538178,0.00074084368,0.00123661155,0.00174242983,0.00220859712
2.55,2.39815057e-05,0.000305839748,0.000741537954,0.00123802905,0.0017456695,0.00221887803
2.6,2.40282593e-05,0.000306134622,0.000742209009,0.00123937527,0.00174863927,0.00222789188
2.65,2.40746177e-05,0.000306423154,0.000742858462,0.00124065715,0.00175137828,0.00223579557
2.7,2.41206051e-05,0.000306705671,0.000743487768,0.00124188067,0.00175391826,0.00224275108
2.75,2.41662464e-05,0.000306982481,0.00074409824,0.00124305103,0.00175628517,0.00224890841
2.8,2.42115672e-05,0.000307253871,0.00074469107,0.00124417278,0.00175850045,0.00225439779
2.85,2.42565947e-05,0.000307520113,0.000745267339,0.00124524992,0.00176058193,0.00225932806
2.9,2.43013575e-05,0.000307781465,0.000745828033,0.00124628596,0.00176254461,0.00226378845
2.95,2.43458865e-05,0.000308038175,0.000746374055,0.00124728405,0.00176440117,0.0022678515
3.0,2.43902148e-05,0.000308290481,0.000746906234,0.00124824698,0.00176616244,0.00227157611
3.05,2.44343785e-05,0.000308538621,0.000747425331,0.00124917724,0.00176783769,0.00227501027
3.1,2.44784169e-05,0.000308782827,0.000747932053,0.00125007708,0.00176943497,0.00227819324
3.15,2.45223726e-05,0.000309023336,0.000748427052,0.00125094852,0.00177096125,0.0022811574
3.2,2.45662926e-05,0.000309260388,0.000748910942,0.00125179339,0.00177242264,0.00228392961
3.25,2.4610228e-05,0.000309494232,0.000749384294,0.00125261335,0.00177382449,0.00228653233
3.3,2.4654235e-05,0.000309725131,0.000749847652,0.00125340991,0.00177517156,0.00228898451
3.35,2.46983749e-05,0.000309953362,0.000750301533,0.00125418445,0.00177646803,0.00229130219
3.4,2.47427145e-05,0.000310179224,0.000750746438,0.00125493824,0.00177771766,0.00229349909
3.45,2.4787327e-05,0.000310403038,0.000751182853,0.00125567245,0.0017789238,0.00229558701
3.5,2.48322917e-05,0.000310625158,0.000751611261,0.00125638813,0.00178008945,0.00229757615
3.55,2.48776948e-05,0.000310845968,0.000752032146,0.0012570863,0.00178121732,0.00229947537
3.6,2.49236298e-05,0.000311065891,0.000752446,0.00125776788,0.00178230987,0.00230129244
3.65,2.49701975e-05,0.000311285393,0.000752853334,0.00125843374,0.00178336933,0.00230303419
3.7,2.50175067e-05,0.000311504986,0.000753254684,0.0012590847,0.0017843977,0.00230470662
3.75,2.50656744e-05,0.000311725236,0.000753650618,0.00125972155,0.00178539685,0.0023063151
3.8,2.51148261e-05,0.000311946765,0.000754041748,0.00126034505,0.00178636847,0.00230786438
3.85,2.51650959e-05,0.000312170257,0.000754428739,0.00126095593,0.0017873141,0.00230935872
3.9,2.52166272e-05,0.000312396461,0.000754812318,0.00126155492,0.00178823518,0.00231080194
3.95,2.52695724e-05,0.000312626198,0.000755193285,0.00126214276,0.00178913305,0.00231219749
4.0,2.53240935e-05,0.000312860366,0.000755572522,0.00126272021,0.00179000894,0.00231354848
4.05,2.53803624e-05,0.000313099941,0.000755951008,0.00126328803,0.00179086401,0.00231485774
4.1,2.54385604e-05,0.000313345983,0.000756329824,0.00126384705,0.00179169937,0.00231612782
4.15,2.54988793e-05,0.000313599642,0.00075671017,0.00126439815,0.00179251605,0.00231736108
4.2,2.55615207e-05,0.000313862159,0.000757093372,0.00126494226,0.00179331506,0.00231855966
4.25,2.56266966e-05,0.000314134869,0.000757480897,0.00126548043,0.0017940974,0.00231972553
4.3,2.56946292e-05,0.000314419209,0.000757874361,0.00126601377,0.00179486404,0.00232086049
4.35,2.57655513e-05,0.000314716718,0.000758275542,0.00126654355,0.00179561595,0.00232196625
4.4,2.58397059e-05,0.000315029037,0.00075868639,0.00126707114,0.00179635415,0.00232304435
4.45,2.59173465e-05,0.00031535792,0.000759109039,0.00126759808,0.00179707968,0.00232409626
4.5,2.5998737e-05,0.000315705225,0.000759545816,0.00126812609,0.00179779363,0.00232512337
4.55,2.60841518e-05,0.000316072928,0.000759999252,0.00126865707,0.00179849718,0.00232612698
4.6,2.61738755e-05,0.000316463115,0.000760472089,0.00126919312,0.00179919161,0.00232710837
4.65,2.62682031e-05,0.000316877989,0.000760967295,0.00126973658,0.00179987831,0.00232806875
4.7,2.63674397e-05,0.000317319868,0.000761488065,0.00127029005,0.00180055882,0.00232900934
4.75,2.64719004e-05,0.00031779119,0.000762037833,0.00127085635,0.00180123483,0.00232993136
4.8,2.65819104e-05,0.000318294509,0.000762620279,0.00127143864,0.00180190823,0.00233083606
4.85,2.66978048e-05,0.000318832497,0.000763239337,0.00127204033,0.00180258112,0.00233172471
4.9,2.68199281e-05,0.000319407945,0.000763899197,0.00127266519,0.00180325585,0.00233259867
4.95,2.69486345e-05,0.00032002376,0.000764604313,0.00127331728,0.00180393502,0.00233345939
5.0,2.70842875e-05,0.00032068297,0.000765359408,0.00127400106,0.00180462152,0.00233430843
5.05,2.72272596e-05,0.000321388716,0.000766169475,0.00127472132,0.00180531858,0.00233514749
5.1,2.73779324e-05,0.000322144256,0.000767039783,0.00127548325,0.00180602976,0.00233597846
5.15,2.7536696e-05,0.00032295296,0.000767975877,0.00127629241,0.00180675898,0.00233680342
5.2,2.77039491e-05,0.000323818312,0.000768983582,0.00127715479,0.00180751057,0.00233762468
5.25,2.78800986e-05,0.000324743907,0.000770069002,0.00127807678,0.00180828929,0.00233844482
5.3,2.80655596e-05,0.000325733447,0.000771238519,0.00127906521,0.00180910033,0.00233926674
5.35,2.82607545e-05,0.000326790741,0.000772498794,0.00128012733,0.00180994936,0.00234009363
5.4,2.84661137e-05,0.000327919702,0.000773856767,0.00128127085,0.00181084253,0.00234092907
5.45,2.86820745e-05,0.000329124344,0.000775319651,0.00128250391,0.00181178651,0.00234177704
5.5,2.89090812e-05,0.00033040878,0.000776894934,0.00128383511,0.00181278851,0.00234264195
5.55,2.9147585e-05,0.000331777217,0.000778590371,0.00128527351,0.0018138563,0.00234352867
5.6,2.93980434e-05,0.000333233956,0.000780413983,0.00128682863,0.00181499818,0.00234444257
5.65,2.96609199e-05,0.000334783389,0.000782374051,0.00128851045,0.00181622309,0.00234538958
5.7,2.9936684e-05,0.000336429989,0.000784479113,0.00129032941,0.00181754052,0.00234637616
5.75,3.0225811e-05,0.000338178318,0.000786737954,0.0012922964,0.00181896061,0.00234740938
5.8,3.05287811e-05,0.000340033012,0.000789159605,0.00129442277,0.0018204941,0.00234849695
5.85,3.08460799e-05,0.000341998786,0.000791753333,0.00129672033,0.00182215236,0.0023496472
5.9,3.11781974e-05,0.000344080426,0.000794528634,0.00129920133,0.0018239474,0.00235086917
5.95,3.15256284e-05,0.000346282785,0.000797495227,0.00130187845,0.00182589189,0.00235217259
6.0,3.18888718e-05,0.000348610783,0.000800663045,0.00130476482,0.00182799911,0.00235356793
6.05,3.22684302e-05,0.000351069399,0.000804042227,0.00130787399,0.00183028301,0.00235506639
6.1,3.26648102e-05,0.00035366367,0.00080764311,0.00131121992,0.00183275817,0.00235667995
6.15,3.30785214e-05,0.000356398686,0.000811476218,0.00131481696,0.00183543983,0.00235842137
6.2,3.35100768e-05,0.000359279586,0.000815552256,0.0013186799,0.00183834384,0.00236030419
6.25,3.39599921e-05,0.000362311555,0.000819882099,0.00132282385,0.0018414867,0.00236234278
6.3,3.44287857e-05,0.00036549982,0.000824476783,0.00132726432,0.00184488553,0.00236455231
6.35,3.4916978e-05,0.000368849646,0.000829347494,0.00133201719,0.00184855806,0.00236694878
6.4,3.54250919e-05,0.000372366331,0.000834505558,0.00133709864,0.0018525226,0.00236954901
6.45,3.59536519e-05,0.000376055204,0.000839962436,0.0013425252,0.00185679808,0.00237237066
6.5,3.65031839e-05,0.000379921622,0.000845729706,0.00134831371,0.00186140399,0.00237543219
6.55,3.70742154e-05,0.000383970964,0.00085181906,0.00135448128,0.00186636035,0.00237875289
6.6,3.76672749e-05,0.000388208627,0.000858242291,0.00136104533,0.00187168775,0.00238235289
