vds,vb1,vb2,vb3,vb4,vb5,vb6
0.0,-2.6940527900000004e-29,-7.88063782e-30,-3.7488549e-19,-5.80419032e-20,3.37110203e-19,2.15298494e-19
0.05,2.92059352e-05,0.000112075873,0.000169199043,0.000209359833,0.000236489808,0.000253737995
0.1,5.04481303e-05,0.000215466711,0.000329744527,0.000410471497,0.000465359136,0.000500572125
0.15,6.43186666e-05,0.000310416329,0.000481854939,0.000603516951,0.000686754008,0.000740617691
0.2,7.22420363e-05,0.000397162643,0.000625743756,0.000788674829,0.000900818333,0.000973988646
0.25,7.67707153e-05,0.000475937731,0.00076161899,0.000966120041,0.00110769361,0.00120079739
0.3,7.99250043e-05,0.000546968545,0.000889683027,0.00113602362,0.00130751884,0.00142115471
0.35,8.24866077e-05,0.000610478146,0.00101013249,0.0012985525,0.00150043034,0.00163516969
0.4,8.47174339e-05,0.000666687845,0.00112315819,0.0014538694,0.00168656162,0.0018429496
0.45,8.67294109e-05,0.00071582112,0.00122894518,0.00160213268,0.00186604324,0.00204459978
0.5,8.85828449e-05,0.000758111968,0.00132767273,0.00174349639,0.00203900275,0.0022402236
0.55,9.03151666e-05,0.000793826033,0.00141951424,0.00187811028,0.00220556463,0.00242992233
0.6,9.19516646e-05,0.000823316966,0.00150463664,0.0020061199,0.0023658503,0.00261379515
0.65,9.35103923e-05,0.000847145156,0.001583199,0.00212766671,0.0025199782,0.00279193914
0.7,9.50047506e-05,0.000866184892,0.00165534944,0.00224288807,0.00266806383,0.00296444925
0.75,9.64449839e-05,0.000881510843,0.00172121933,0.0023519171,0.00281021992,0.00313141837
0.8,9.78391094e-05,0.000894115079,0.00178091271,0.00245488221,0.00294655644,0.0032929374
0.85,9.91935215e-05,0.000904749263,0.00183449047,0.00255190617,0.00307718078,0.00344909527
0.9,0.000100513404,0.000913935104,0.0018819572,0.00264310421,0.00320219768,0.00359997912
0.95,0.000101803016,0.000922028448,0.0019232857,0.00272858074,0.00332170918,0.00374567427
1.0,0.000103065899,0.000929275479,0.0019585422,0.00280842355,0.00343581438,0.00388626439
1.05,0.000104305032,0.00093585081,0.00198809261,0.0028826941,0.00354460887,0.00402183152
1.1,0.000105522939,0.00094188164,0.00201267752,0.0029514119,0.00364818383,0.00415245607
1.15,0.00010672178,0.000947462993,0.00203323199,0.00301453266,0.00374662447,0.0042782168
1.2,0.000107903416,0.000952667482,0.0020506441,0.00307192733,0.00384000735,0.00439919072
1.25,0.000109069461,0.000957551723,0.00206563486,0.00312339028,0.00392839623,0.00451545279
1.3,0.000110221324,0.000962160642,0.0020787487,0.0031687295,0.0040118352,0.00462707554
1.35,0.000111360241,0.000966530451,0.00209038691,0.00320795553,0.00409033798,0.00473412836
1.4,0.000112487304,0.000970690738,0.00210084531,0.00324144656,0.00416387203,0.00483667641
1.45,0.000113603481,0.00097466598,0.00211034447,0.00326991858,0.00423233768,0.00493477886
1.5,0.000114709631,0.000978476644,0.00211905142,0.00329422988,0.00429554904,0.0050284863
1.55,0.000115806524,0.000982140011,0.00212709478,0.00331519471,0.00435323824,0.00511783656
1.6,0.000116894851,0.000985670804,0.00213457523,0.00333349462,0.00440512097,0.00520284842
1.65,0.000117975235,0.000989081662,0.00214157278,0.00334966633,0.00445104274,0.00528351212
1.7,0.000119048235,0.000992383515,0.00214815193,0.00336412229,0.00449113931,0.00535977581
1.75,0.000120114362,0.000995585878,0.00215436532,0.00337717796,0.00452588148,0.00543152831
1.8,0.000121174077,0.000998697085,0.00216025645,0.00338907602,0.00455596537,0.00549858264
1.85,0.000122227803,0.00100172447,0.00216586159,0.00340000501,0.0045821471,0.00556067421
1.9,0.000123275924,0.00100467453,0.00217121133,0.00341011325,0.00460512374,0.00561749864
1.95,0.000124318793,0.00100755304,0.00217633166,0.00341951887,0.00462548327,0.00566880961
2.0,0.000125356734,0.00101036516,0.00218124484,0.00342831716,0.00464369997,0.00571455202
2.05,0.000126390045,0.0010131155,0.00218597009,0.00343658585,0.00466014915,0.00575494867
2.1,0.000127419002,0.00101580823,0.00219052409,0.00344438907,0.00467512643,0.00579047484
2.15,0.00012844386,0.00101844711,0.00219492142,0.00345178022,0.00468886545,0.00582174719
2.2,0.000129464856,0.00102103554,0.00219917489,0.00345880425,0.0047015522,0.00584940546
2.25,0.000130482211,0.00102357663,0.00220329582,0.00346549925,0.00471333612,0.00587403611
2.3,0.000131496131,0.00102607319,0.00220729426,0.00347189779,0.00472433849,0.00589614104
2.35,0.000132506811,0.00102852781,0.00221117916,0.00347802791,0.0047346587,0.00591613442
2.4,0.000133514437,0.00103094286,0.00221495853,0.00348391392,0.00474437901,0.00593435246
2.45,0.000134519184,0.0010333205,0.00221863957,0.003489577,0.00475356812,0.00595106663
2.5,0.000135521221,0.00103566275,0.00222222878,0.00349503573,0.0047622839,0.00596649647
2.55,0.000136520715,0.00103797147,0.00222573204,0.00350030649,0.0047705755,0.0059808204
2.6,0.000137517826,0.00104024837,0.00222915468,0.00350540379,0.00477848496,0.00599418447
2.65,0.000138512716,0.00104249506,0.00223250156,0.00351034053,0.0047860485,0.00600670915
2.7,0.000139505549,0.00104471304,0.00223577712,0.00351512826,0.00479329751,0.00601849461
2.75,0.000140496489,0.00104690371,0.00223898542,0.00351977732,0.00480025939,0.00602962483
2.8,0.000141485708,0.00104906841,0.00224213018,0.00352429702,0.00480695813,0.00604017077
2.85,0.000142473385,0.00105120841,0.00224521486,0.00352869577,0.00481341492,0.00605019281
2.9,0.000143459712,0.00105332491,0.00224824263,0.00353298121,0.00481964849,0.00605974268
2.95,0.000144444893,0.0010554191,0.00225121645,0.00353716027,0.00482567554,0.00606886502
3.0,0.000145429146,0.0010574921,0.00225413905,0.00354123928,0.00483151095,0.00607759857
3.05,0.00014641271,0.00105954507,0.00225701301,0.00354522402,0.00483716808,0.00608597713
3.1,0.000147395846,0.00106157912,0.00225984075,0.0035491198,0.00484265897,0.00609403039
3.15,0.000148378838,0.0010635954,0.00226262456,0.0035529315,0.00484799448,0.00610178449
3.2,0.000149362,0.00106559509,0.00226536663,0.00355666363,0.00485318445,0.00610926264
3.25,0.000150345674,0.00106757939,0.00226806906,0.00356032036,0.00485823783,0.00611648545
3.3,0.000151330239,0.00106954957,0.00227073391,0.0035639056,0.00486316277,0.00612347135
3.35,0.00015231611,0.00107150698,0.0022733632,0.00356742296,0.00486796674,0.00613023689
3.4,0.000153303743,0.00107345305,0.00227595894,0.00357087587,0.00487265657,0.00613679695
3.45,0.000154293638,0.00107538932,0.00227852315,0.00357426755,0.00487723855,0.00614316496
3.5,0.000155286341,0.00107731746,0.00228105793,0.0035776011,0.00488171849,0.00614935312
3.55,0.000156282452,0.00107923927,0.00228356543,0.00358087948,0.00488610177,0.00615537248
3.6,0.000157282622,0.00108115672,0.0022860479,0.00358410558,0.00489039339,0.00616123315
3.65,0.000158287559,0.00108307195,0.00228850775,0.00358728225,0.00489459802,0.00616694436
3.7,0.000159298033,0.0010849873,0.00229094754,0.00359041234,0.00489872005,0.00617251456
3.75,0.000160314876,0.00108690532,0.00229337004,0.00359349871,0.00490276363,0.00617795155
3.8,0.000161338987,0.00108882879,0.00229577825,0.00359654432,0.00490673273,0.00618326248
3.85,0.000162371334,0.00109076074,0.00229817545,0.00359955223,0.00491063116,0.00618845402
3.9,0.000163412958,0.00109270446,0.00230056521,0.00360252568,0.00491446262,0.00619353233
3.95,0.000164464973,0.00109466354,0.00230295146,0.00360546808,0.00491823078,0.00619850318
4.0,0.000165528573,0.00109664185,0.00230533849,0.00360838315,0.00492193928,0.00620337198
4.05,0.000166605029,0.00109864358,0.00230773102,0.00361127487,0.00492559181,0.00620814384
4.1,0.000167695699,0.00110067326,0.00231013421,0.0036141476,0.00492919217,0.00621282362
4.15,0.00016880202,0.00110273574,0.0023125537,0.0036170061,0.00493274431,0.00621741599
4.2,0.00016992552,0.00110483626,0.00231499566,0.00361985561,0.00493625238,0.0062219255
4.25,0.000171067814,0.0011069804,0.0023174668,0.00362270186,0.00493972083,0.00622635659
4.3,0.000172230608,0.00110917415,0.00231997444,0.0036255512,0.00494315442,0.00623071371
4.35,0.000173415699,0.00111142387,0.00232252651,0.00362841055,0.00494655835,0.00623500133
4.4,0.000174624978,0.00111373633,0.00232513157,0.00363128758,0.00494993827,0.00623922404
4.45,0.000175860433,0.00111611872,0.00232779888,0.00363419064,0.00495330039,0.00624338659
4.5,0.000177124144,0.00111857865,0.00233053841,0.00363712892,0.00495665153,0.00624749401
4.55,0.000178418293,0.00112112414,0.00233336084,0.00364011242,0.00495999921,0.00625155161
4.6,0.000179745156,0.00112376365,0.00233627764,0.00364315207,0.00496335172,0.00625556515
4.65,0.000181107109,0.00112650609,0.00233930103,0.00364625972,0.00496671818,0.00625954085
4.7,0.000182506629,0.0011293608,0.00234244404,0.00364944823,0.00497010865,0.00626348549
4.75,0.000183946291,0.00113233757,0.00234572051,0.00365273149,0.00497353415,0.00626740654
4.8,0.00018542877,0.00113544661,0.00234914511,0.00365612448,0.00497700679,0.00627131219
4.85,0.000186956842,0.00113869861,0.00235273337,0.0036596433,0.00498053979,0.00627521149
4.9,0.000188533383,0.00114210469,0.00235650164,0.0036633052,0.00498414761,0.00627911442
4.95,0.000190161368,0.0011456764,0.00236046717,0.00366712862,0.00498784594,0.00628303197
5.0,0.000191843874,0.00114942574,0.00236464806,0.00367113324,0.00499165185,0.00628697629
5.05,0.000193584075,0.00115336516,0.00236906327,0.00367533997,0.00499558376,0.00629096071
5.1,0.000195385247,0.00115750753,0.00237373266,0.00367977099,0.0049996616,0.00629499987
5.15,0.00019725076,0.00116186613,0.00237867694,0.00368444977,0.00500390676,0.00629910983
5.2,0.000199184086,0.0011664547,0.00238391771,0.00368940109,0.00500834221,0.00630330812
5.25,0.00020118879,0.00117128735,0.0023894774,0.00369465105,0.00501299252,0.00630761383
5.3,0.000203268537,0.00117637864,0.00239537931,0.00370022704,0.00501788391,0.00631204772
5.35,0.000205427082,0.00118174349,0.00240164761,0.00370615782,0.00502304425,0.00631663227
5.4,0.000207668276,0.00118739723,0.00240830725,0.00371247345,0.00502850316,0.00632139178
5.45,0.000209996064,0.00119335557,0.00241538405,0.0037192053,0.00503429195,0.00632635239
5.5,0.00021241448,0.00119963457,0.00242290461,0.00372638607,0.00504044371,0.0063315422
5.55,0.000214927647,0.00120625066,0.0024308963,0.00373404977,0.00504699328,0.00633699129
5.6,0.000217539779,0.00121322063,0.00243938727,0.00374223167,0.00505397728,0.00634273178
5.65,0.000220255174,0.00122056158,0.00244840643,0.00375096833,0.00506143409,0.00634879789
5.7,0.000223078218,0.00122829094,0.00245798338,0.00376029752,0.0050694039,0.00635522595
5.75,0.000226013377,0.00123642645,0.00246814844,0.00377025827,0.00507792861,0.00636205445
5.8,0.000229065203,0.00124498616,0.00247893259,0.00378089078,0.0050870519,0.00636932406
5.85,0.000232238324,0.00125398839,0.00249036746,0.00379223639,0.00509681919,0.00637707765
5.9,0.00023553745,0.00126345173,0.0025024853,0.00380433759,0.00510727758,0.00638536028
5.95,0.000238967365,0.00127339501,0.00251531896,0.00381723794,0.00511847587,0.00639421924
6.0,0.000242532928,0.00128383735,0.00252890181,0.00383098206,0.00513046447,0.00640370401
6.05,0.000246239073,0.00129479804,0.0025432678,0.00384561554,0.00514329541,0.00641386625
6.1,0.000250090801,0.00130629662,0.00255845135,0.00386118497,0.00515702228,0.00642475982
6.15,0.000254093185,0.00131835283,0.00257448734,0.00387773782,0.00517170018,0.00643644069
6.2,0.000258251362,0.00133098657,0.0025914111,0.00389532243,0.00518738566,0.00644896696
6.25,0.000262570538,0.00134421793,0.00260925837,0.00391398798,0.00520413666,0.00646239879
6.3,0.000267055978,0.00135806716,0.00262806522,0.00393378437,0.00522201247,0.00647679837
6.35,0.00027171301,0.00137255462,0.0026478681,0.00395476223,0.00524107367,0.00649222984
6.4,0.000276547019,0.00138770085,0.00266870374,0.00397697286,0.00526138202,0.00650875926
6.45,0.000281563448,0.00140352645,0.00269060913,0.00400046813,0.00528300044,0.00652645454
6.5,0.000286767796,0.00142005215,0.00271362151,0.00402530047,0.00530599292,0.00654538535
6.55,0.000292165611,0.00143729876,0.00273777831,0.00405152281,0.00533042442,0.00656562306
6.6,0.000297762495,0.00145528715,0.00276311715,0.00407918848,0.00535636084,0.00658724064
