vds,vb1,vb2,vb3,vb4,vb5,vb6
0.0,-2.92793998e-30,4.04978458e-30,1.536962e-19,2.6322883e-19,2.29956235e-20,-1.44335383e-19
0.05,1.14075789e-05,4.72441295e-05,7.25944821e-05,9.0655811e-05,0.000102991732,0.000110925862
0.1,1.96096831e-05,9.08745366e-05,0.000141549566,0.000177818529,0.000202741076,0.000218905666
0.15,2.48431589e-05,0.000130990583,0.000206956219,0.000261565159,0.000299310573,0.00032398919
0.2,2.76909387e-05,0.000167689029,0.000268903165,0.000341971129,0.000392761705,0.00042622551
0.25,2.91965031e-05,0.0002010641,0.0003274768,0.000419110209,0.000483154828,0.000525662946
0.3,3.01722698e-05,0.000231207705,0.000382761183,0.000493054491,0.000570549162,0.000622349058
0.35,3.09278614e-05,0.000258209776,0.000434838024,0.000563874362,0.000655002765,0.000716330627
0.4,3.15651798e-05,0.000282158844,0.000483786681,0.000631638481,0.000736572506,0.000807653636
0.45,3.21264318e-05,0.000303143105,0.000529684157,0.000696413766,0.00081531405,0.000896363255
0.5,3.26335998e-05,0.000321252765,0.000572605088,0.0007582654,0.000891281836,0.000982503822
0.55,3.30999515e-05,0.000336586096,0.000612621667,0.00081725684,0.000964529082,0.00106611883
0.6,3.35342634e-05,0.000349266379,0.000649803451,0.00087344983,0.00103510779,0.00114725095
0.65,3.39427036e-05,0.000359483046,0.000684216943,0.000926904417,0.00110306874,0.00122594196
0.7,3.43297973e-05,0.000367549869,0.000715924758,0.000977678926,0.00116846154,0.00130223283
0.75,3.46989733e-05,0.000373902278,0.000744984063,0.00102582992,0.00123133463,0.0013761637
0.8,3.50528967e-05,0.000378989136,0.000771443776,0.00107141203,0.00129173528,0.00144777386
0.85,3.53936822e-05,0.000383171399,0.000795339993,0.00111447777,0.00134970965,0.00151710183
0.9,3.57230368e-05,0.000386702881,0.000816689984,0.00115507696,0.00140530274,0.00158418533
0.95,3.60423589e-05,0.000389754601,0.000835489784,0.00119325604,0.00145855839,0.00164906131
1.0,3.63528085e-05,0.000392442359,0.000851731811,0.0012290566,0.0015095192,0.00171176597
1.05,3.66553587e-05,0.000394846419,0.000865464549,0.0012625132,0.00155822637,0.00177233479
1.1,3.69508336e-05,0.000397024004,0.000876872239,0.00129364958,0.00160471955,0.00183080248
1.15,3.72399374e-05,0.000399017046,0.000886286301,0.00132247286,0.00164903641,0.00188720303
1.2,3.75232765e-05,0.000400857055,0.00089410063,0.00134896545,0.00169121208,0.00194156962
1.25,3.78013765e-05,0.000402568237,0.000900677485,0.00137307689,0.00173127825,0.00199393462
1.3,3.80746962e-05,0.000404169559,0.000906306018,0.00139472487,0.00176926168,0.00204432946
1.35,3.83436384e-05,0.000405676135,0.000911202533,0.00141382417,0.00180518196,0.00209278445
1.4,3.86085584e-05,0.000407100197,0.000915525525,0.00143035558,0.00183904793,0.00213932863
1.45,3.88697711e-05,0.000408451772,0.000919391345,0.00144444048,0.00187085245,0.00218398931
1.5,3.91275574e-05,0.000409739182,0.000922886441,0.00145635024,0.001900565,0.00222679161
1.55,3.93821681e-05,0.000410969406,0.000926076086,0.0014664378,0.00192812355,0.0022677576
1.6,3.96338287e-05,0.00041214835,0.00092901041,0.00147505461,0.00195343024,0.0023069051
1.65,3.98827423e-05,0.000413281059,0.000931728555,0.00148250268,0.0019763625,0.00234424578
1.7,4.01290926e-05,0.000414371872,0.000934261562,0.00148902253,0.00199681366,0.00237978244
1.75,4.0373046e-05,0.00041542455,0.000936634398,0.00149479939,0.00201475946,0.0024135049
1.8,4.06147542e-05,0.000416442372,0.000938867409,0.00149997456,0.00203031066,0.0024453844
1.85,4.08543554e-05,0.000417428214,0.000940977367,0.00150465607,0.00204370693,0.00247536674
1.9,4.10919761e-05,0.000418384613,0.00094297825,0.00150892732,0.00205525816,0.00250336617
1.95,4.13277323e-05,0.000419313819,0.000944881819,0.00151285343,0.00206527953,0.00252926579
2.0,4.15617308e-05,0.000420217832,0.000946698055,0.00151648591,0.00207405166,0.00255293401
2.05,4.17940699e-05,0.000421098444,0.000948435499,0.00151986598,0.00208180693,0.00257426457
2.1,4.20248406e-05,0.000421957262,0.000950101512,0.00152302708,0.00208873101,0.00259323069
2.15,4.22541273e-05,0.000422795733,0.000951702479,0.00152599662,0.0020949701,0.00260992151
2.2,4.24820084e-05,0.000423615167,0.000953243977,0.0015287973,0.00210063911,0.0026245341
2.25,4.27085572e-05,0.000424416753,0.0009547309,0.00153144811,0.00210582872,0.00263732889
2.3,4.29338426e-05,0.000425201572,0.000956167567,0.00153396509,0.00211061111,0.00264857953
2.35,4.31579294e-05,0.00042597061,0.000957557809,0.00153636185,0.00211504425,0.00265853903
2.4,4.3380879e-05,0.00042672477,0.000958905039,0.00153865011,0.00211917515,0.0026674248
2.45,4.36027501e-05,0.000427464882,0.000960212308,0.00154083995,0.00212304237,0.00267541653
2.5,4.38235994e-05,0.000428191708,0.000961482358,0.00154294014,0.00212667778,0.00268265987
2.55,4.40434818e-05,0.000428905954,0.000962717659,0.00154495834,0.00213010803,0.00268927219
2.6,4.42624513e-05,0.000429608273,0.000963920445,0.00154690129,0.00213335552,0.00269534804
2.65,4.44805616e-05,0.000430299272,0.000965092744,0.00154877494,0.00213643931,0.00270096399
2.7,4.46978666e-05,0.000430979517,0.0009662364,0.00155058456,0.00213937567,0.00270618244
2.75,4.49144212e-05,0.000431649541,0.000967353098,0.00155233485,0.00214217863,0.00271105465
2.8,4.51302821e-05,0.000432309845,0.000968444379,0.00155403002,0.00214486033,0.00271562307
2.85,4.53455083e-05,0.000432960905,0.000969511662,0.00155567385,0.00214743137,0.00271992314
2.9,4.55601619e-05,0.000433603179,0.00097055625,0.00155726976,0.00214990104,0.00272398469
2.95,4.5774309e-05,0.000434237107,0.000971579351,0.00155882081,0.00215227753,0.00272783301
3.0,4.59880205e-05,0.00043486312,0.000972582084,0.00156032982,0.00215456808,0.00273148968
3.05,4.62013729e-05,0.000435481641,0.000973565494,0.00156179933,0.00215677913,0.00273497328
3.1,4.6414449e-05,0.000436093095,0.000974530558,0.00156323166,0.00215891645,0.00273829987
3.15,4.66273391e-05,0.000436697913,0.000975478201,0.00156462894,0.00216098518,0.00274148342
3.2,4.68401418e-05,0.000437296533,0.000976409297,0.00156599313,0.00216298998,0.00274453616
3.25,4.70529645e-05,0.000437889413,0.000977324687,0.00156732604,0.00216493503,0.00274746885
3.3,4.72659251e-05,0.000438477031,0.000978225183,0.00156862932,0.00216682413,0.002750291
3.35,4.74791521e-05,0.000439059895,0.000979111581,0.00156990455,0.00216866074,0.00275301104
3.4,4.7692786e-05,0.000439638549,0.000979984669,0.00157115315,0.002170448,0.00275563651
3.45,4.79069804e-05,0.000440213577,0.000980845239,0.0015723765,0.00217218879,0.00275817412
3.5,4.81219024e-05,0.000440785612,0.000981694097,0.00157357588,0.00217388573,0.00276062995
3.55,4.83377336e-05,0.000441355343,0.000982532075,0.00157475252,0.00217554128,0.00276300943
3.6,4.85546714e-05,0.000441923522,0.000983360045,0.0015759076,0.00217715765,0.0027653175
3.65,4.87729295e-05,0.00044249097,0.000984178928,0.00157704228,0.00217873694,0.00276755864
3.7,4.89927388e-05,0.000443058585,0.000984989708,0.00157815769,0.00218028107,0.00276973692
3.75,4.92143482e-05,0.000443627348,0.000985793448,0.00157925497,0.00218179186,0.00277185606
3.8,4.94380256e-05,0.000444198332,0.000986591301,0.00158033527,0.00218327101,0.00277391947
3.85,4.96640583e-05,0.000444772707,0.000987384526,0.00158139978,0.00218472016,0.00277593028
3.9,4.9892754e-05,0.000445351749,0.000988174504,0.00158244975,0.00218614085,0.00277789136
3.95,5.01244415e-05,0.000445936844,0.000988962749,0.00158348647,0.0021875346,0.00277980538
4.0,5.03594711e-05,0.000446529496,0.000989750926,0.00158451136,0.00218890288,0.00278167482
4.05,5.05982154e-05,0.000447131335,0.000990540866,0.00158552593,0.00219024717,0.00278350199
4.1,5.08410696e-05,0.000447744119,0.000991334582,0.00158653182,0.00219156896,0.00278528906
4.15,5.10884525e-05,0.000448369742,0.000992134281,0.00158753084,0.00219286976,0.00278703806
4.2,5.13408066e-05,0.000449010241,0.000992942381,0.00158852495,0.00219415117,0.00278875097
4.25,5.15985984e-05,0.000449667797,0.000993761528,0.00158951635,0.00219541486,0.00279042965
4.3,5.18623194e-05,0.000450344742,0.000994594606,0.00159050743,0.00219666259,0.00279207594
4.35,5.21324856e-05,0.000451043565,0.000995444752,0.00159150085,0.00219789629,0.00279369165
4.4,5.24096385e-05,0.000451766913,0.000996315372,0.00159249952,0.00219911805,0.00279527858
4.45,5.26943448e-05,0.000452517595,0.000997210152,0.00159350668,0.00220033014,0.00279683856
4.5,5.29871972e-05,0.000453298587,0.000998133069,0.00159452585,0.00220153507,0.0027983735
4.55,5.32888138e-05,0.00045411303,0.000999088403,0.00159556093,0.00220273562,0.00279988535
4.6,5.3599839e-05,0.000454964238,0.00100008075,0.00159661617,0.00220393484,0.00280137623
4.65,5.39209429e-05,0.000455855698,0.00100111503,0.0015976962,0.00220513611,0.00280284837
4.7,5.42528217e-05,0.000456791068,0.00100219649,0.00159880608,0.00220634317,0.00280430422
4.75,5.45961976e-05,0.000457774181,0.00100333074,0.00159995128,0.00220756014,0.00280574641
4.8,5.49518188e-05,0.000458809045,0.00100452369,0.00160113774,0.00220879158,0.00280717787
4.85,5.53204592e-05,0.000459899843,0.00100578166,0.00160237186,0.00221004248,0.00280860182
4.9,5.57029185e-05,0.000461050932,0.0010071113,0.00160366053,0.00221131833,0.00281002179
4.95,5.61000219e-05,0.000462266844,0.00100851962,0.00160501113,0.00221262514,0.00281144173
5.0,5.651262e-05,0.000463552282,0.00101001401,0.00160643158,0.00221396945,0.00281286599
5.05,5.69415885e-05,0.00046491212,0.00101160222,0.00160793031,0.0022153584,0.00281429938
5.1,5.73878278e-05,0.000466351402,0.00101329238,0.0016095163,0.00221679971,0.00281574722
5.15,5.78522632e-05,0.000467875339,0.00101509296,0.0016111991,0.00221830176,0.00281721538
5.2,5.83358439e-05,0.000469489306,0.00101701284,0.0016129888,0.00221987355,0.00281871029
5.25,5.88395432e-05,0.000471198839,0.00101906125,0.00161489605,0.00222152478,0.00282023904
5.3,5.93643578e-05,0.000473009634,0.00102124777,0.0016169321,0.00222326584,0.00282180937
5.35,5.99113077e-05,0.00047492754,0.00102358236,0.00161910875,0.00222510784,0.00282342973
5.4,6.04814354e-05,0.000476958558,0.00102607532,0.00162143841,0.00222706264,0.00282510928
5.45,6.1075806e-05,0.000479108837,0.00102873733,0.00162393404,0.00222914282,0.002826858
5.5,6.1695506e-05,0.000481384667,0.00103157939,0.00162660918,0.00223136174,0.00282868665
5.55,6.23416438e-05,0.000483792479,0.00103461283,0.00162947797,0.00223373352,0.00283060681
5.6,6.30153483e-05,0.000486338836,0.00103784934,0.00163255508,0.00223627308,0.00283263097
5.65,6.37177689e-05,0.000489030431,0.0010413009,0.00163585578,0.0022389961,0.00283477248
5.7,6.4450075e-05,0.000491874083,0.00104497984,0.00163939587,0.00224191906,0.0028370456
5.75,6.52134553e-05,0.000494876729,0.00104889876,0.00164319171,0.00224505922,0.00283946554
5.8,6.60091174e-05,0.000498045418,0.00105307056,0.0016472602,0.00224843463,0.00284204845
5.85,6.6838287e-05,0.000501387311,0.00105750844,0.00165161874,0.00225206413,0.00284481145
5.9,6.77022078e-05,0.000504909671,0.00106222585,0.00165628526,0.00225596731,0.00284777263
5.95,6.86021407e-05,0.00050861986,0.00106723652,0.00166127819,0.00226016455,0.00285095106
6.0,6.95393631e-05,0.000512525331,0.0010725544,0.00166661642,0.00226467696,0.0028543668
6.05,7.05151686e-05,0.000516633624,0.0010781937,0.00167231932,0.00226952642,0.00285804092
6.1,7.15308664e-05,0.000520952362,0.00108416885,0.00167840669,0.00227473551,0.00286199545
6.15,7.25877805e-05,0.00052548924,0.00109049447,0.00168489879,0.00228032753,0.00286625341
6.2,7.36872495e-05,0.000530252028,0.0010971854,0.00169181625,0.00228632646,0.00287083881
6.25,7.48306258e-05,0.000535248555,0.00110425665,0.00169918011,0.00229275694,0.00287577659
6.3,7.60192749e-05,0.000540486713,0.00111172339,0.00170701176,0.00229964428,0.00288109267
6.35,7.72545753e-05,0.000545974444,0.00111960097,0.00171533294,0.00230701438,0.00288681389
6.4,7.85379174e-05,0.000551719738,0.00112790486,0.00172416574,0.00231489375,0.00289296801
6.45,7.98707033e-05,0.000557730629,0.00113665067,0.0017335325,0.00232330947,0.00289958367
6.5,8.12543462e-05,0.000564015184,0.00114585411,0.00174345587,0.00233228912,0.00290669037
6.55,8.26902698e-05,0.000570581505,0.00115553102,0.00175395875,0.00234186083,0.00291431846
6.6,8.41799075e-05,0.000577437715,0.00116569729,0.00176506427,0.00235205319,0.00292249908
