vds,vb1,vb2,vb3,vb4,vb5,vb6
0.0,-1.20031931e-23,6.68310226e-22,-5.89436998e-22,3.23927726e-21,5.5130635300000004e-21,-1.26843354e-21
0.05,5.31014583e-08,1.9950414e-07,3.24928329e-07,4.26325305e-07,5.04023415e-07,5.60472436e-07
0.1,9.69385181e-08,3.89428405e-07,6.40862289e-07,8.44423721e-07,1.00065112e-06,1.11437833e-06
0.15,1.31580718e-07,5.69795133e-07,9.47823053e-07,1.25431391e-06,1.48989882e-06,1.66173052e-06
0.2,1.57180295e-07,7.40626689e-07,1.24583171e-06,1.65601447e-06,1.97178217e-06,2.2025418e-06
0.25,1.74143281e-07,9.01945526e-07,1.53490929e-06,2.04954392e-06,2.44631675e-06,2.73682493e-06
0.3,1.83592939e-07,1.05377425e-06,1.81507676e-06,2.43492073e-06,2.91351813e-06,3.26459264e-06
0.35,1.87865543e-07,1.19613571e-06,2.08635502e-06,2.81216334e-06,3.37340182e-06,3.78585761e-06
0.4,1.89620506e-07,1.32905313e-06,2.34876494e-06,3.1812901e-06,3.8259833e-06,4.30063251e-06
0.45,1.90418612e-07,1.45255031e-06,2.60232732e-06,3.54231933e-06,4.27127798e-06,4.80892997e-06
0.5,1.9085829e-07,1.56665194e-06,2.84706291e-06,3.89526929e-06,4.70930126e-06,5.31076259e-06
0.55,1.9114766e-07,1.67138415e-06,3.0829924e-06,4.24015819e-06,5.1400685e-06,5.80614294e-06
0.6,1.91365237e-07,1.76677534e-06,3.31013646e-06,4.57700419e-06,5.56359499e-06,6.29508356e-06
0.65,1.91544464e-07,1.8528577e-06,3.5285157e-06,4.90582538e-06,5.97989599e-06,6.77759696e-06
0.7,1.91701275e-07,1.92966983e-06,3.73815069e-06,5.2266398e-06,6.38898674e-06,7.25369562e-06
0.75,1.91844008e-07,1.99726166e-06,3.939062e-06,5.53946546e-06,6.79088241e-06,7.72339198e-06
0.8,1.91977371e-07,2.05570366e-06,4.13127016e-06,5.84432028e-06,7.18559813e-06,8.18669846e-06
0.85,1.92104197e-07,2.10510492e-06,4.31479572e-06,6.14122214e-06,7.57314901e-06,8.64362745e-06
0.9,1.9222628e-07,2.14564844e-06,4.48965922e-06,6.43018888e-06,7.95355011e-06,9.0941913e-06
0.95,1.92344808e-07,2.17765807e-06,4.65588129e-06,6.71123827e-06,8.32681643e-06,9.53840234e-06
1.0,1.92460599e-07,2.20171006e-06,4.81348264e-06,6.98438801e-06,8.69296294e-06,9.97627286e-06
1.05,1.92574229e-07,2.21876618e-06,4.96248413e-06,7.24965577e-06,9.05200457e-06,1.04078151e-05
1.1,1.92686121e-07,2.23020825e-06,5.1029069e-06,7.50705914e-06,9.40395621e-06,1.08330414e-05
1.15,1.92796589e-07,2.23762367e-06,5.23477247e-06,7.75661566e-06,9.7488327e-06,1.12519638e-05
1.2,1.92905874e-07,2.24243162e-06,5.358103e-06,7.99834283e-06,1.00866488e-05,1.16645945e-05
1.25,1.93014161e-07,2.24565359e-06,5.4729216e-06,8.23225805e-06,1.04174194e-05,1.20709458e-05
1.3,1.93121597e-07,2.24792666e-06,5.57925287e-06,8.45837869e-06,1.0741159e-05,1.24710297e-05
1.35,1.932283e-07,2.24962236e-06,5.67712382e-06,8.67672204e-06,1.10578824e-05,1.28648582e-05
1.4,1.93334365e-07,2.25095469e-06,5.76656528e-06,8.88730535e-06,1.13676042e-05,1.32524435e-05
1.45,1.93439871e-07,2.25204916e-06,5.84761432e-06,9.09014578e-06,1.1670339e-05,1.36337974e-05
1.5,1.93544882e-07,2.25298174e-06,5.92031845e-06,9.28526043e-06,1.19661013e-05,1.40089322e-05
1.55,1.93649454e-07,2.25380013e-06,5.98474278e-06,9.47266636e-06,1.22549055e-05,1.43778596e-05
1.6,1.93753632e-07,2.25453534e-06,6.04098246e-06,9.65238055e-06,1.25367661e-05,1.47405915e-05
1.65,1.93857456e-07,2.25520821e-06,6.08918403e-06,9.82441992e-06,1.28116975e-05,1.509714e-05
1.7,1.93960959e-07,2.2558332e-06,6.12958015e-06,9.98880135e-06,1.30797139e-05,1.54475168e-05
1.75,1.94064171e-07,2.25642061e-06,6.16254092e-06,1.01455417e-05,1.33408297e-05,1.57917338e-05
1.8,1.94167117e-07,2.25697796e-06,6.18863461e-06,1.02946578e-05,1.35950591e-05,1.61298027e-05
1.85,1.9426982e-07,2.25751084e-06,6.20866843e-06,1.04361665e-05,1.38424162e-05,1.64617353e-05
1.9,1.94372298e-07,2.25802352e-06,6.22366037e-06,1.05700848e-05,1.40829151e-05,1.67875434e-05
1.95,1.9447457e-07,2.25851931e-06,6.23471839e-06,1.06964298e-05,1.43165698e-05,1.71072386e-05
2.0,1.94576651e-07,2.2590008e-06,6.24287765e-06,1.0815219e-05,1.45433943e-05,1.74208325e-05
2.05,1.94678555e-07,2.25947007e-06,6.24898425e-06,1.09264707e-05,1.47634025e-05,1.77283368e-05
2.1,1.94780295e-07,2.25992877e-06,6.25366454e-06,1.10302041e-05,1.49766081e-05,1.80297631e-05
2.15,1.94881884e-07,2.26037829e-06,6.2573547e-06,1.112644e-05,1.5183025e-05,1.83251229e-05
2.2,1.94983332e-07,2.26081974e-06,6.26034977e-06,1.12152027e-05,1.53826666e-05,1.86144277e-05
2.25,1.95084652e-07,2.26125408e-06,6.26284796e-06,1.1296521e-05,1.55755465e-05,1.88976889e-05
2.3,1.95185856e-07,2.26168209e-06,6.26498342e-06,1.1370432e-05,1.57616782e-05,1.9174918e-05
2.35,1.95286955e-07,2.26210444e-06,6.26684828e-06,1.14369865e-05,1.59410749e-05,1.94461264e-05
2.4,1.95387964e-07,2.2625217e-06,6.26850702e-06,1.1496258e-05,1.61137498e-05,1.97113254e-05
2.45,1.95488899e-07,2.26293437e-06,6.27000566e-06,1.15483564e-05,1.6279716e-05,1.99705263e-05
2.5,1.95589778e-07,2.26334288e-06,6.27137769e-06,1.15934504e-05,1.64389863e-05,2.02237402e-05
2.55,1.95690626e-07,2.2637476e-06,6.27264795e-06,1.1631797e-05,1.65915734e-05,2.04709785e-05
2.6,1.95791468e-07,2.26414885e-06,6.2738352e-06,1.16637768e-05,1.67374898e-05,2.07122522e-05
2.65,1.95892338e-07,2.26454692e-06,6.27495384e-06,1.16899219e-05,1.68767479e-05,2.09475724e-05
2.7,1.95993279e-07,2.26494207e-06,6.27601506e-06,1.17109172e-05,1.70093599e-05,2.11769501e-05
2.75,1.96094338e-07,2.26533452e-06,6.27702775e-06,1.17275581e-05,1.71353377e-05,2.14003963e-05
2.8,1.96195578e-07,2.26572448e-06,6.27799897e-06,1.17406715e-05,1.72546933e-05,2.16179217e-05
2.85,1.96297072e-07,2.26611212e-06,6.27893448e-06,1.17510286e-05,1.73674384e-05,2.18295373e-05
2.9,1.96398906e-07,2.26649764e-06,6.27983896e-06,1.17592865e-05,1.7473585e-05,2.20352536e-05
2.95,1.96501185e-07,2.26688118e-06,6.2807163e-06,1.17659672e-05,1.75731455e-05,2.22350813e-05
3.0,1.96604033e-07,2.26726291e-06,6.28156972e-06,1.17714667e-05,1.76661332e-05,2.2429031e-05
3.05,1.96707593e-07,2.26764299e-06,6.28240194e-06,1.17760775e-05,1.77525634e-05,2.26171129e-05
3.1,1.96812035e-07,2.26802157e-06,6.28321528e-06,1.17800133e-05,1.78324545e-05,2.27993374e-05
3.15,1.96917554e-07,2.26839884e-06,6.28401169e-06,1.178343e-05,1.79058308e-05,2.29757145e-05
3.2,1.97024373e-07,2.268775e-06,6.28479286e-06,1.17864417e-05,1.79727264e-05,2.31462542e-05
3.25,1.97132748e-07,2.26915026e-06,6.28556025e-06,1.17891334e-05,1.80331919e-05,2.33109662e-05
3.3,1.97242972e-07,2.2695249e-06,6.28631513e-06,1.17915684e-05,1.80873038e-05,2.34698602e-05
3.35,1.97355372e-07,2.26989923e-06,6.28705861e-06,1.17937949e-05,1.81351799e-05,2.36229454e-05
3.4,1.97470318e-07,2.27027365e-06,6.28779166e-06,1.17958501e-05,1.8176998e-05,2.3770231e-05
3.45,1.97588223e-07,2.27064861e-06,6.28851515e-06,1.17977628e-05,1.8213019e-05,2.39117256e-05
3.5,1.97709546e-07,2.27102468e-06,6.28922983e-06,1.17995557e-05,1.82436072e-05,2.40474376e-05
3.55,1.97834795e-07,2.27140255e-06,6.2899364e-06,1.18012471e-05,1.82692377e-05,2.41773753e-05
3.6,1.9796453e-07,2.27178304e-06,6.29063547e-06,1.18028514e-05,1.82904822e-05,2.43015461e-05
3.65,1.98099366e-07,2.27216713e-06,6.29132761e-06,1.18043808e-05,1.83079707e-05,2.44199573e-05
3.7,1.98239975e-07,2.27255599e-06,6.29201334e-06,1.18058448e-05,1.83223388e-05,2.45326157e-05
3.75,1.98387086e-07,2.27295099e-06,6.29269316e-06,1.18072518e-05,1.83341782e-05,2.46395275e-05
3.8,1.98541493e-07,2.27335376e-06,6.29336754e-06,1.18086085e-05,1.83440039e-05,2.47406986e-05
3.85,1.98704051e-07,2.27376618e-06,6.29403698e-06,1.18099205e-05,1.83522416e-05,2.48361347e-05
3.9,1.98875685e-07,2.27419042e-06,6.29470196e-06,1.18111929e-05,1.83592312e-05,2.49258415e-05
3.95,1.99057383e-07,2.27462901e-06,6.29536303e-06,1.18124297e-05,1.83652378e-05,2.50098255e-05
4.0,1.99250206e-07,2.27508481e-06,6.29602078e-06,1.18136345e-05,1.83704656e-05,2.50880947e-05
4.05,1.99455285e-07,2.27556107e-06,6.2966759e-06,1.18148104e-05,1.83750716e-05,2.51606608e-05
4.1,1.99673823e-07,2.27606148e-06,6.2973292e-06,1.18159601e-05,1.83791766e-05,2.52275415e-05
4.15,1.99907097e-07,2.27659017e-06,6.29798164e-06,1.18170859e-05,1.83828738e-05,2.52887654e-05
4.2,2.0015646e-07,2.27715177e-06,6.29863435e-06,1.181819e-05,1.83862356e-05,2.53443788e-05
4.25,2.00423339e-07,2.27775142e-06,6.29928874e-06,1.1819274e-05,1.83893192e-05,2.53944551e-05
4.3,2.00709237e-07,2.27839482e-06,6.29994647e-06,1.18203398e-05,1.83921695e-05,2.54391085e-05
4.35,2.01015734e-07,2.27908824e-06,6.30060956e-06,1.18213886e-05,1.83948227e-05,2.54785089e-05
4.4,2.01344489e-07,2.27983857e-06,6.30128042e-06,1.18224218e-05,1.83973078e-05,2.55128978e-05
4.45,2.01697235e-07,2.28065334e-06,6.30196193e-06,1.18234406e-05,1.83996485e-05,2.55425975e-05
4.5,2.02075784e-07,2.28154073e-06,6.30265749e-06,1.18244461e-05,1.84018642e-05,2.55680104e-05
4.55,2.02482025e-07,2.28250964e-06,6.30337111e-06,1.18254393e-05,1.8403971e-05,2.55896026e-05
4.6,2.02917922e-07,2.28356965e-06,6.30410749e-06,1.18264211e-05,1.84059823e-05,2.56078748e-05
4.65,2.03385516e-07,2.28473112e-06,6.30487208e-06,1.18273925e-05,1.84079093e-05,2.56233275e-05
4.7,2.03886924e-07,2.28600514e-06,6.30567118e-06,1.18283545e-05,1.84097616e-05,2.563643e-05
4.75,2.04424336e-07,2.28740359e-06,6.306512e-06,1.18293082e-05,1.84115472e-05,2.56475997e-05
4.8,2.05000016e-07,2.28893914e-06,6.30740279e-06,1.18302545e-05,1.84132732e-05,2.56571925e-05
4.85,2.05616302e-07,2.29062528e-06,6.30835289e-06,1.18311949e-05,1.84149456e-05,2.56655032e-05
4.9,2.062756e-07,2.29247631e-06,6.30937284e-06,1.18321306e-05,1.84165694e-05,2.56727711e-05
4.95,2.06980389e-07,2.29450738e-06,6.31047445e-06,1.18330635e-05,1.84181493e-05,2.56791879e-05
5.0,2.07733216e-07,2.29673445e-06,6.31167092e-06,1.18339956e-05,1.84196891e-05,2.56849066e-05
5.05,2.08536692e-07,2.29917438e-06,6.31297689e-06,1.18349293e-05,1.84211925e-05,2.56900488e-05
5.1,2.09393497e-07,2.30184483e-06,6.31440854e-06,1.18358675e-05,1.84226623e-05,2.56947117e-05
5.15,2.10306373e-07,2.30476436e-06,6.31598371e-06,1.18368137e-05,1.84241014e-05,2.56989729e-05
5.2,2.11278123e-07,2.30795235e-06,6.3177219e-06,1.18377722e-05,1.84255122e-05,2.57028951e-05
5.25,2.12311612e-07,2.31142906e-06,6.31964444e-06,1.18387481e-05,1.8426897e-05,2.5706529e-05
5.3,2.13409761e-07,2.31521559e-06,6.32177448e-06,1.18397472e-05,1.84282575e-05,2.57099159e-05
5.35,2.14575548e-07,2.31933388e-06,6.32413713e-06,1.18407766e-05,1.84295958e-05,2.57130898e-05
5.4,2.15812005e-07,2.32380673e-06,6.32675947e-06,1.18418447e-05,1.84309134e-05,2.57160788e-05
5.45,2.17122215e-07,2.32865775e-06,6.32967064e-06,1.1842961e-05,1.8432212e-05,2.57189064e-05
5.5,2.18509313e-07,2.33391136e-06,6.33290189e-06,1.18441366e-05,1.84334931e-05,2.57215922e-05
5.55,2.19976479e-07,2.33959283e-06,6.33648663e-06,1.18453844e-05,1.84347584e-05,2.57241527e-05
5.6,2.2152694e-07,2.34572818e-06,6.34046046e-06,1.18467189e-05,1.84360093e-05,2.5726602e-05
5.65,2.23163966e-07,2.35234422e-06,6.34486125e-06,1.18481569e-05,1.84372477e-05,2.5728952e-05
5.7,2.24890868e-07,2.35946854e-06,6.34972912e-06,1.18497171e-05,1.84384754e-05,2.57312132e-05
5.75,2.26710996e-07,2.36712946e-06,6.35510648e-06,1.18514207e-05,1.84396947e-05,2.57333944e-05
5.8,2.28627737e-07,2.37535603e-06,6.3610381e-06,1.18532912e-05,1.84409082e-05,2.57355034e-05
5.85,2.3064451e-07,2.384178e-06,6.36757105e-06,1.18553549e-05,1.84421187e-05,2.57375469e-05
5.9,2.3276477e-07,2.39362581e-06,6.37475479e-06,1.1857641e-05,1.844333e-05,2.57395307e-05
5.95,2.34992e-07,2.40373058e-06,6.38264108e-06,1.18601815e-05,1.84445464e-05,2.57414602e-05
6.0,2.37329711e-07,2.41452404e-06,6.39128408e-06,1.18630117e-05,1.84457731e-05,2.57433398e-05
6.05,2.3978144e-07,2.42603858e-06,6.40074028e-06,1.18661699e-05,1.84470163e-05,2.57451736e-05
6.1,2.42350746e-07,2.43830715e-06,6.41106847e-06,1.18696983e-05,1.84482834e-05,2.57469654e-05
6.15,2.45041212e-07,2.4513633e-06,6.42232981e-06,1.18736421e-05,1.84495834e-05,2.57487183e-05
6.2,2.47856438e-07,2.46524109e-06,6.43458771e-06,1.18780507e-05,1.84509266e-05,2.57504354e-05
6.25,2.50800042e-07,2.47997515e-06,6.44790786e-06,1.18829768e-05,1.84523252e-05,2.57521192e-05
6.3,2.53875658e-07,2.49560057e-06,6.4623582e-06,1.18884775e-05,1.84537937e-05,2.57537724e-05
6.35,2.57086932e-07,2.51215293e-06,6.47800884e-06,1.18946134e-05,1.84553484e-05,2.57553971e-05
6.4,2.60437521e-07,2.52966825e-06,6.49493208e-06,1.19014496e-05,1.84570085e-05,2.57569958e-05
6.45,2.63931092e-07,2.54818297e-06,6.51320231e-06,1.19090551e-05,1.84587958e-05,2.57585706e-05
6.5,2.6757132e-07,2.56773391e-06,6.53289601e-06,1.19175033e-05,1.84607352e-05,2.57601237e-05
6.55,2.71361882e-07,2.58835829e-06,6.55409166e-06,1.19268718e-05,1.84628548e-05,2.57616577e-05
6.6,2.75306464e-07,2.61009364e-06,6.57686972e-06,1.19372425e-05,1.84651863e-05,2.5763175e-05
