vds,vb1,vb2,vb3,vb4,vb5,vb6
0.0,-7.062987160000001e-31,-4.51221207e-30,4.10698345e-30,7.58841686e-29,1.00996815e-28,-1.26645859e-18
0.05,1.46795238e-05,6.54023716e-05,0.000103171368,0.00013077326,0.000149983457,0.000162549443
0.1,2.5343334e-05,0.000126253348,0.00020177189,0.000257158592,0.000295889781,0.000321392437
0.15,3.22154343e-05,0.000182644236,0.000295888333,0.000379231418,0.000437781414,0.000476579333
0.2,3.58897762e-05,0.000234664541,0.000385605734,0.000497065836,0.000575719847,0.000628159817
0.25,3.76021673e-05,0.000282402046,0.000471007377,0.000610734604,0.000709765607,0.000776182898
0.3,3.85157481e-05,0.000325942965,0.000552174816,0.000720309146,0.00083997826,0.00092069691
0.35,3.91309685e-05,0.000365372179,0.000629187879,0.000825859557,0.000966416415,0.00106174951
0.4,3.96071964e-05,0.000400773635,0.000702124678,0.000927454607,0.00108913772,0.00119938769
0.45,4.00030314e-05,0.000432231077,0.000771061615,0.00102516174,0.00120819886,0.00133365776
0.5,4.0345576e-05,0.000459829535,0.000836073376,0.00111904709,0.00132365557,0.00146460535
0.55,4.06497355e-05,0.000483658648,0.000897232917,0.00120917547,0.00143556263,0.00159227541
0.6,4.09247165e-05,0.000503820717,0.000954611416,0.0012956104,0.00154397386,0.00171671223
0.65,4.11766701e-05,0.000520450749,0.00100827818,0.00137841411,0.00164894214,0.00183795942
0.7,4.14099414e-05,0.000533761723,0.00105830044,0.00145764752,0.00175051941,0.0019560599
0.75,4.16277279e-05,0.000544115446,0.00110474306,0.00153337025,0.00184875671,0.00207105596
0.8,4.18324591e-05,0.000552051329,0.00114766795,0.00160564061,0.00194370411,0.0021829892
0.85,4.20260275e-05,0.000558182732,0.00118713312,0.00167451553,0.00203541082,0.00229190058
0.9,4.22099387e-05,0.000563040417,0.00122319109,0.00174005047,0.00212392512,0.00239783042
0.95,4.23854107e-05,0.000567007308,0.00125588659,0.0018022993,0.0022092944,0.00250081838
1.0,4.2553444e-05,0.000570338664,0.00128525338,0.00186131409,0.00229156513,0.00260090351
1.05,4.27148705e-05,0.000573202589,0.0013113124,0.00191714471,0.00237078286,0.00269812423
1.1,4.28703899e-05,0.000575711898,0.00133407779,0.0019698383,0.0024469922,0.00279251835
1.15,4.30205961e-05,0.000577944549,0.00135358611,0.0020194384,0.00252023675,0.00288412307
1.2,4.31659979e-05,0.00057995609,0.00136996057,0.0020659836,0.00259055903,0.00297297498
1.25,4.33070345e-05,0.000581787242,0.00138347866,0.0021095054,0.00265800039,0.00305911005
1.3,4.34440877e-05,0.000583468631,0.0013945667,0.00215002498,0.00272260077,0.00314256365
1.35,4.35774915e-05,0.000585023806,0.00140370713,0.00218754849,0.00278439852,0.00322337051
1.4,4.37075396e-05,0.000586471237,0.00141134022,0.00222206095,0.00284342995,0.00330156469
1.45,4.38344918e-05,0.000587825658,0.00141781895,0.00225352048,0.00289972881,0.00337717959
1.5,4.39585793e-05,0.000589099,0.0014234087,0.00228185927,0.00295332541,0.00345024784
1.55,4.40800081e-05,0.000590301056,0.00142830446,0.00230700423,0.00300424542,0.00352080124
1.6,4.41989632e-05,0.000591439959,0.00143264932,0.00232893048,0.00305250796,0.00358887066
1.65,4.4315611e-05,0.000592522532,0.00143654942,0.00234773517,0.00309812286,0.00365448587
1.7,4.44301016e-05,0.000593554557,0.00144008463,0.00236367804,0.00314108671,0.00371767532
1.75,4.45425712e-05,0.000594540973,0.00144331609,0.00237714588,0.00318137742,0.00377846582
1.8,4.46531437e-05,0.000595486033,0.00144629136,0.00238856803,0.00321894765,0.00383688209
1.85,4.4761932e-05,0.000596393423,0.00144904799,0.00239834333,0.00325371906,0.00389294612
1.9,4.48690392e-05,0.000597266361,0.00145161608,0.00240680556,0.003285583,0.00394667622
1.95,4.497456e-05,0.00059810767,0.00145402006,0.00241421908,0.00331441782,0.00399808575
2.0,4.50785815e-05,0.000598919842,0.00145628001,0.00242078819,0.00334013245,0.00404718113
2.05,4.51811839e-05,0.000599705086,0.00145841262,0.00242666979,0.00336272952,0.00409395918
2.1,4.52824416e-05,0.000600465369,0.00146043185,0.00243198476,0.0033823532,0.00413840332
2.15,4.53824234e-05,0.000601202453,0.00146234956,0.00243682704,0.00339928434,0.00418047862
2.2,4.54811936e-05,0.000601917919,0.00146417585,0.00244127046,0.00341388528,0.00422012594
2.25,4.55788122e-05,0.000602613193,0.0014659194,0.00244537369,0.00342653268,0.0042572568
2.3,4.56753356e-05,0.000603289564,0.00146758772,0.00244918392,0.00343757072,0.00429175273
2.35,4.57708172e-05,0.000603948203,0.00146918738,0.00245273957,0.00344729103,0.00432347625
2.4,4.58653079e-05,0.000604590174,0.0014707241,0.0024560722,0.00345593073,0.00435230081
2.45,4.59588563e-05,0.000605216453,0.00147220294,0.00245920805,0.00346367888,0.00437815884
2.5,4.60515098e-05,0.00060582793,0.00147362837,0.00246216908,0.00347068526,0.00440108948
2.55,4.61433145e-05,0.000606425424,0.00147500438,0.0024649739,0.00347706872,0.00442125729
2.6,4.62343161e-05,0.00060700969,0.00147633451,0.00246763833,0.00348292404,0.00443892881
2.65,4.63245607e-05,0.000607581427,0.00147762196,0.00247017596,0.00348832744,0.00445442314
2.7,4.64140946e-05,0.000608141285,0.00147886958,0.00247259856,0.00349334077,0.00446806358
2.75,4.65029657e-05,0.000608689867,0.00148007998,0.00247491632,0.00349801463,0.00448014615
2.8,4.65912239e-05,0.000609227742,0.0014812555,0.00247713819,0.00350239085,0.00449092594
2.85,4.66789215e-05,0.000609755446,0.00148239826,0.00247927202,0.00350650429,0.00450061529
2.9,4.67661141e-05,0.000610273489,0.00148351023,0.00248132476,0.00351038425,0.00450938788
2.95,4.68528614e-05,0.000610782362,0.00148459318,0.00248330255,0.00351405555,0.00451738477
3.0,4.69392277e-05,0.000611282539,0.00148564875,0.00248521091,0.00351753936,0.00452472047
3.05,4.70252828e-05,0.000611774486,0.00148667843,0.00248705475,0.00352085389,0.00453148827
3.1,4.71111028e-05,0.000612258668,0.00148768363,0.00248883847,0.00352401486,0.00453776455
3.15,4.71967706e-05,0.000612735553,0.00148866564,0.00249056608,0.00352703597,0.00454361233
3.2,4.72823771e-05,0.00061320562,0.00148962567,0.00249224118,0.0035299292,0.00454908395
3.25,4.73680218e-05,0.000613669364,0.00149056484,0.00249386704,0.00353270507,0.0045542232
3.3,4.74538133e-05,0.000614127307,0.00149148424,0.00249544663,0.00353537288,0.00455906701
3.35,4.75398705e-05,0.000614580003,0.0014923849,0.00249698269,0.00353794091,0.00456364674
3.4,4.76263233e-05,0.000615028048,0.00149326779,0.00249847771,0.0035404165,0.00456798918
3.45,4.77133132e-05,0.000615472085,0.00149413389,0.00249993399,0.00354280625,0.0045721174
3.5,4.78009941e-05,0.000615912817,0.00149498416,0.00250135364,0.00354511608,0.00457605134
3.55,4.78895332e-05,0.000616351014,0.00149581956,0.00250273864,0.00354735132,0.00457980837
3.6,4.79791114e-05,0.000616787519,0.00149664108,0.00250409082,0.00354951679,0.0045834037
3.65,4.80699244e-05,0.000617223264,0.00149744973,0.00250541189,0.00355161688,0.0045868507
3.7,4.81621828e-05,0.000617659274,0.00149824658,0.0025067035,0.00355365557,0.00459016117
3.75,4.82561132e-05,0.000618096677,0.00149903278,0.0025079672,0.0035556365,0.00459334562
3.8,4.83519587e-05,0.000618536717,0.00149980953,0.00250920448,0.00355756301,0.00459641337
3.85,4.8449979e-05,0.000618980758,0.00150057819,0.00251041682,0.00355943816,0.00459937279
3.9,4.85504516e-05,0.0006194303,0.00150134021,0.00251160566,0.00356126479,0.0046022314
3.95,4.86536718e-05,0.000619886982,0.00150209718,0.00251277248,0.00356304551,0.00460499596
4.0,4.87599531e-05,0.000620352593,0.00150285089,0.00251391878,0.00356478278,0.00460767259
4.05,4.88696278e-05,0.000620829084,0.00150360329,0.0025150461,0.00356647888,0.00461026684
4.1,4.89830472e-05,0.000621318569,0.00150435656,0.00251615609,0.003568136,0.00461278376
4.15,4.91005821e-05,0.000621823343,0.0015051131,0.00251725051,0.00356975621,0.00461522797
4.2,4.92226226e-05,0.00062234588,0.00150587558,0.00251833125,0.0035713415,0.00461760368
4.25,4.93495788e-05,0.000622888845,0.00150664693,0.00251940038,0.00357289384,0.00461991478
4.3,4.94818805e-05,0.000623455103,0.0015074304,0.00252046018,0.00357441516,0.00462216484
4.35,4.96199777e-05,0.000624047717,0.00150822956,0.00252151315,0.00357590742,0.00462435718
4.4,4.97643405e-05,0.000624669965,0.00150904831,0.00252256209,0.00357737263,0.00462649488
4.45,4.99154589e-05,0.000625325333,0.00150989094,0.0025236101,0.00357881288,0.00462858084
4.5,5.00738432e-05,0.000626017532,0.0015107621,0.00252466061,0.00358023038,0.00463061778
4.55,5.02400238e-05,0.00062675049,0.00151166687,0.00252571745,0.00358162748,0.0046326083
4.6,5.04145508e-05,0.000627528364,0.00151261073,0.00252678487,0.00358300675,0.00463455491
4.65,5.05979944e-05,0.000628355541,0.00151359964,0.00252786756,0.003584371,0.00463646005
4.7,5.07909442e-05,0.000629236636,0.00151463999,0.00252897072,0.0035857233,0.00463832613
4.75,5.09940093e-05,0.000630176499,0.00151573864,0.00253010008,0.0035870671,0.00464015559
4.8,5.12078183e-05,0.000631180213,0.00151690297,0.00253126193,0.00358840619,0.00464195089
4.85,5.14330182e-05,0.000632253096,0.00151814085,0.00253246316,0.00358974481,0.00464371462
4.9,5.16702751e-05,0.0006334007,0.00151946064,0.00253371131,0.00359108768,0.0046454495
4.95,5.19202732e-05,0.00063462881,0.00152087127,0.00253501459,0.00359244006,0.00464715842
5.0,5.21837146e-05,0.000635943443,0.00152238216,0.00253638188,0.00359380778,0.00464884453
5.05,5.24613194e-05,0.000637350848,0.0015240033,0.00253782284,0.00359519733,0.00465051128
5.1,5.27538243e-05,0.000638857502,0.00152574521,0.00253934784,0.00359661588,0.00465216246
5.15,5.30619833e-05,0.000640470107,0.00152761898,0.00254096808,0.00359807135,0.00465380228
5.2,5.33865665e-05,0.000642195588,0.00152963624,0.00254269553,0.00359957246,0.0046554354
5.25,5.37283599e-05,0.000644041088,0.00153180917,0.00254454302,0.00360112876,0.00465706705
5.3,5.4088165e-05,0.000646013967,0.00153415052,0.00254652422,0.0036027507,0.00465870304
5.35,5.44667983e-05,0.000648121793,0.0015366736,0.00254865366,0.00360444969,0.00466034987
5.4,5.48650905e-05,0.000650372341,0.00153939223,0.00255094675,0.00360623809,0.00466201474
5.45,5.52838866e-05,0.000652773585,0.00154232083,0.00255341982,0.00360812932,0.00466370569
5.5,5.57240449e-05,0.000655333695,0.00154547433,0.00255609008,0.00361013785,0.00466543161
5.55,5.61864366e-05,0.000658061031,0.0015488682,0.00255897565,0.00361227926,0.00466720235
5.6,5.66719452e-05,0.000660964134,0.00155251845,0.00256209558,0.00361457026,0.00466902873
5.65,5.71814662e-05,0.000664051722,0.00155644158,0.00256546981,0.00361702874,0.00467092269
5.7,5.77159066e-05,0.000667332686,0.00156065461,0.00256911923,0.00361967379,0.00467289725
5.75,5.82761838e-05,0.000670816076,0.00156517508,0.0025730656,0.0036225257,0.00467496667
5.8,5.88632257e-05,0.000674511103,0.00157002097,0.00257733164,0.00362560601,0.00467714644
5.85,5.947797e-05,0.000678427123,0.00157521076,0.00258194091,0.00362893752,0.00467945335
5.9,6.01213634e-05,0.000682573639,0.00158076338,0.00258691789,0.0036325443,0.00468190557
5.95,6.07943612e-05,0.000686960285,0.00158669819,0.00259228794,0.0036364517,0.00468452268
6.0,6.1497927e-05,0.000691596826,0.00159303498,0.00259807726,0.00364068633,0.0046873257
6.05,6.2233032e-05,0.000696493143,0.00159979395,0.0026043129,0.00364527612,0.00469033714
6.1,6.30006541e-05,0.000701659233,0.0016069957,0.00261102274,0.00365025025,0.00469358106
6.15,6.38017782e-05,0.000707105197,0.00161466117,0.00261823544,0.00365563919,0.00469708307
6.2,6.46373948e-05,0.000712841232,0.00162281171,0.00262598047,0.00366147468,0.00470087037
6.25,6.55085001e-05,0.000718877627,0.00163146895,0.00263428803,0.00366778971,0.00470497175
6.3,6.64160954e-05,0.000725224752,0.00164065487,0.00264318905,0.00367461849,0.00470941766
6.35,6.73611863e-05,0.000731893052,0.00165039175,0.00265271519,0.00368199646,0.00471424016
6.4,6.83447824e-05,0.000738893038,0.00166070213,0.00266289874,0.00368996025,0.00471947297
6.45,6.93678971e-05,0.000746235282,0.00167160882,0.00267377266,0.00369854765,0.00472515145
6.5,7.04315466e-05,0.000753930408,0.00168313487,0.00268537052,0.00370779759,0.00473131259
6.55,7.15367497e-05,0.000761989086,0.00169530354,0.00269772645,0.00371775009,0.00473799503
6.6,7.26845274e-05,0.000770422023,0.00170813831,0.00271087514,0.00372844625,0.00474523902
