vds,vb1,vb2,vb3,vb4,vb5,vb6
0.0,-0.0,-0.0,-0.0,-0.0,-0.0,-0.0
0.05,2.50565273e-05,0.000168174571,0.000260103433,0.000318216125,0.000356083022,0.000381101804
0.1,3.72437761e-05,0.000311229151,0.000494734303,0.000612657674,0.000690560193,0.000742743776
0.15,4.22942804e-05,0.000431508718,0.000705827602,0.000884835162,0.0010046017,0.00108583843
0.2,4.48841232e-05,0.000531012454,0.00089510166,0.0011361241,0.00129929056,0.00141124013
0.25,4.67285155e-05,0.000611425524,0.0010640716,0.00136777511,0.00157562897,0.00171974901
0.3,4.82983553e-05,0.000674208925,0.00121405232,0.00158092089,0.00183454347,0.00201211438
0.35,4.97446952e-05,0.000720944007,0.00134614781,0.00177657919,0.00207688882,0.00228903759
0.4,5.11280186e-05,0.000754054036,0.00146122539,0.00195565065,0.00230345027,0.00255117425
0.45,5.24771324e-05,0.000777067802,0.0015598867,0.00211890941,0.00251494386,0.00279913582
0.5,5.38076036e-05,0.000793560192,0.00164249813,0.0022669835,0.00271201405,0.00303349036
0.55,5.51286631e-05,0.000806109984,0.00170944137,0.00240032292,0.00289522754,0.00325476224
0.6,5.64461823e-05,0.000816262385,0.00176170848,0.00251915847,0.00306506177,0.00346343033
0.65,5.77641036e-05,0.000824896151,0.00180142483,0.00262347712,0.00322188587,0.00365992427
0.7,5.90851901e-05,0.000832519585,0.00183152453,0.00271309115,0.00336593209,0.00384461792
0.75,6.0411447e-05,0.000839439256,0.0018548355,0.00278793208,0.00349725853,0.00401781878
0.8,6.1744371e-05,0.000845848843,0.00187351786,0.00284858164,0.00361571434,0.00417975183
0.85,6.30851059e-05,0.000851876143,0.00188903801,0.00289665306,0.00372094476,0.00433053639
0.9,6.44345438e-05,0.0008576088,0.00190235145,0.0029345419,0.00381251433,0.00447015554
0.95,6.57933916e-05,0.000863108972,0.00191408104,0.00296474706,0.00389022722,0.00459842294
1.0,6.7162218e-05,0.000868422033,0.00192464074,0.00298936448,0.00395456599,0.00471496478
1.05,6.8541486e-05,0.000873581945,0.00193431288,0.00300995225,0.00400691404,0.00481925873
1.1,6.99315764e-05,0.000878614688,0.00194329537,0.003027607,0.00404930334,0.00491079343
1.15,7.13328054e-05,0.000883540516,0.00195173061,0.00304308862,0.00408389455,0.00498937588
1.2,7.27454378e-05,0.000888375482,0.00195972353,0.00305692636,0.00411257973,0.00505546708
1.25,7.41696968e-05,0.0008931325,0.00196735316,0.00306949441,0.00413684119,0.00511029117
1.3,7.5605772e-05,0.000897822094,0.00197468017,0.00308106235,0.00415777675,0.00515559704
1.35,7.7053826e-05,0.00090245294,0.00198175196,0.0030918283,0.00417618194,0.00519325549
1.4,7.85139997e-05,0.000907032269,0.00198860614,0.0031019407,0.00419263188,0.00522494984
1.45,7.99864172e-05,0.000911566164,0.00199527296,0.0031115128,0.00420754576,0.00525204781
1.5,8.14711902e-05,0.000916059787,0.00200177709,0.00312063245,0.00422123312,0.00527560123
1.55,8.29684223e-05,0.000920517561,0.00200813883,0.00312936888,0.00423392607,0.00529639908
1.6,8.44782137e-05,0.000924943305,0.00201437509,0.00313777737,0.00424580139,0.00531502911
1.65,8.60006655e-05,0.000929340351,0.00202050007,0.00314590266,0.00425699578,0.00533193072
1.7,8.7535885e-05,0.000933711639,0.00202652582,0.00315378134,0.00426761648,0.00534743532
1.75,8.90839908e-05,0.000938059796,0.00203246263,0.00316144368,0.00427774876,0.00536179584
1.8,9.06451189e-05,0.00094238721,0.00203831939,0.00316891497,0.00428746128,0.00537520777
1.85,9.22194294e-05,0.000946696099,0.00204410383,0.0031762165,0.00429680996,0.00538782417
1.9,9.3807113e-05,0.000950988567,0.00204982276,0.00318336636,0.00430584079,0.00539976635
1.95,9.54083991e-05,0.000955266675,0.00205548224,0.00319038005,0.00431459203,0.00541113165
2.0,9.70235639e-05,0.000959532494,0.00206108776,0.00319727099,0.00432309574,0.00542199904
2.05,9.86529394e-05,0.000963788169,0.00206664439,0.00320405085,0.00433137903,0.00543243322
2.1,0.000100296923,0.000968035982,0.00207215691,0.00321072996,0.00433946504,0.00544248777
2.15,0.000101955988,0.000972278415,0.00207762997,0.00321731752,0.00434737362,0.00545220742
2.2,0.000103630695,0.000976518214,0.0020830682,0.00322382191,0.00435512202,0.00546162984
2.25,0.000105321701,0.000980758457,0.00208847636,0.0032302509,0.00436272531,0.00547078702
2.3,0.000107029775,0.000985002622,0.00209385944,0.00323661186,0.00437019687,0.00547970633
2.35,0.000108755811,0.000989254655,0.00209922284,0.00324291196,0.0043775487,0.00548841138
2.4,0.000110500838,0.000993519042,0.00210457249,0.00324915842,0.00438479175,0.00549692271
2.45,0.000112266038,0.000997800884,0.00210991497,0.00325535866,0.00439193627,0.00550525838
2.5,0.000114052759,0.00100210597,0.00211525768,0.00326152055,0.00439899205,0.00551343445
2.55,0.000115862533,0.00100644084,0.00212060895,0.00326765261,0.00440596873,0.00552146542
2.6,0.000117697089,0.00101081289,0.00212597823,0.00327376417,0.00441287604,0.00552936464
2.65,0.000119558374,0.00101523042,0.00213137618,0.00327986566,0.00441972411,0.00553714464
2.7,0.000121448565,0.00101970272,0.00213681486,0.00328596878,0.00442652375,0.00554481752
2.75,0.000123370093,0.00102424016,0.00214230788,0.00329208673,0.0044332867,0.00555239528
2.8,0.000125325658,0.00102885426,0.00214787051,0.0032982344,0.00444002592,0.00555989018
2.85,0.000127318249,0.00103355775,0.00215351988,0.00330442867,0.0044467559,0.00556731506
2.9,0.000129351164,0.00103836469,0.00215927509,0.00331068853,0.00445349293,0.00557468368
2.95,0.000131428027,0.00104329052,0.00216515739,0.00331703539,0.0044602554,0.00558201112
3.0,0.000133552814,0.00104835215,0.00217119029,0.00332349325,0.00446706408,0.00558931407
3.05,0.000135729867,0.00105356803,0.00217739978,0.00333008896,0.00447394244,0.00559661124
3.1,0.000137963919,0.00105895822,0.00218381439,0.00333685241,0.00448091693,0.0056039237
3.15,0.000140260112,0.00106454448,0.00219046541,0.0033438168,0.00448801728,0.00561127524
3.2,0.000142624021,0.00107035036,0.002197387,0.0033510188,0.00449527681,0.00561869274
3.25,0.00014506167,0.00107640121,0.00220461633,0.00335849883,0.0045027327,0.00562620654
3.3,0.000147579559,0.00108272432,0.00221219371,0.00336630124,0.00451042632,0.00563385085
