vds,vb1,vb2,vb3,vb4,vb5,vb6
0.0,-0.0,-0.0,-0.0,-0.0,-0.0,-0.0
0.05,5.10520648e-07,1.52292435e-06,2.4232269e-06,3.19961736e-06,3.85878255e-06,4.41091508e-06
0.1,9.08189996e-07,2.91399914e-06,4.71162496e-06,6.26570796e-06,7.58758425e-06,8.6967658e-06
0.15,1.19880125e-06,4.17865212e-06,6.87053268e-06,9.20347269e-06,1.11914468e-05,1.28624284e-05
0.2,1.38706353e-06,5.3197334e-06,8.90270966e-06,1.20155381e-05,1.46728426e-05,1.69102145e-05
0.25,1.48421336e-06,6.33945957e-06,1.08102763e-05,1.4703896e-05,1.80336139e-05,2.08418101e-05
0.3,1.52165143e-06,7.23988092e-06,1.25951728e-05,1.72703619e-05,2.12754315e-05,2.46587342e-05
0.35,1.53673203e-06,8.02300782e-06,1.4259269e-05,1.97166843e-05,2.43999035e-05,2.83624471e-05
0.4,1.54534224e-06,8.69087531e-06,1.58043908e-05,2.20445708e-05,2.74086016e-05,3.19543774e-05
0.45,1.55155081e-06,9.24564363e-06,1.7232328e-05,2.42556953e-05,3.03030677e-05,3.54359273e-05
0.5,1.55656221e-06,9.6898552e-06,1.85448376e-05,2.63516997e-05,3.3084816e-05,3.88084756e-05
0.55,1.56085338e-06,1.00271936e-05,1.97436465e-05,2.8334195e-05,3.57553337e-05,4.20733778e-05
0.6,1.56465913e-06,1.026473e-05,2.08304557e-05,3.02047623e-05,3.83160817e-05,4.5231967e-05
0.65,1.56811313e-06,1.0417765e-05,2.18069456e-05,3.19649532e-05,4.07684952e-05,4.82855543e-05
0.7,1.57129936e-06,1.05119248e-05,2.2674788e-05,3.36162902e-05,4.31139844e-05,5.12354291e-05
0.75,1.5742743e-06,1.05727673e-05,2.34356691e-05,3.51602671e-05,4.53539342e-05,5.40828594e-05
0.8,1.57707799e-06,1.06160506e-05,2.40913439e-05,3.65983492e-05,4.74897054e-05,5.68290927e-05
0.85,1.57973988e-06,1.06494918e-05,2.46437747e-05,3.7931973e-05,4.95226344e-05,5.94753556e-05
0.9,1.58228234e-06,1.06768583e-05,2.50955144e-05,3.91625454e-05,5.14540334e-05,6.20228549e-05
0.95,1.58472278e-06,1.07001506e-05,2.54507615e-05,4.0291442e-05,5.32851909e-05,6.44727771e-05
1.0,1.58707502e-06,1.07205321e-05,2.5717729e-05,4.13200036e-05,5.50173708e-05,6.68262893e-05
1.05,1.58935023e-06,1.07387328e-05,2.59113199e-05,4.22495312e-05,5.6651812e-05,6.9084539e-05
1.1,1.59155759e-06,1.07552393e-05,2.60513444e-05,4.30812773e-05,5.81897272e-05,7.12486543e-05
1.15,1.59370471e-06,1.07703918e-05,2.61559197e-05,4.38164394e-05,5.96323009e-05,7.33197438e-05
1.2,1.59579798e-06,1.07844373e-05,2.62376305e-05,4.44561766e-05,6.09806851e-05,7.52988964e-05
1.25,1.59784283e-06,1.07975608e-05,2.63041999e-05,4.50017441e-05,6.22359939e-05,7.71871809e-05
1.3,1.5998439e-06,1.08099044e-05,2.63602883e-05,4.54550496e-05,6.33992922e-05,7.89856452e-05
1.35,1.60180522e-06,1.08215797e-05,2.64087945e-05,4.58202319e-05,6.44715788e-05,8.06953152e-05
1.4,1.60373027e-06,1.0832676e-05,2.64516012e-05,4.61061869e-05,6.54537561e-05,8.23171922e-05
1.45,1.60562212e-06,1.08432658e-05,2.6489985e-05,4.6327278e-05,6.63465814e-05,8.38522503e-05
1.5,1.60748349e-06,1.08534087e-05,2.65248448e-05,4.64998339e-05,6.71505908e-05,8.53014307e-05
1.55,1.6093168e-06,1.08631544e-05,2.65568348e-05,4.66378305e-05,6.78660056e-05,8.66656339e-05
1.6,1.61112428e-06,1.08725447e-05,2.65864448e-05,4.67513818e-05,6.84927045e-05,8.79457064e-05
1.65,1.61290796e-06,1.08816152e-05,2.66140503e-05,4.68473204e-05,6.90305786e-05,8.91424201e-05
1.7,1.6146698e-06,1.08903964e-05,2.66399451e-05,4.69302142e-05,6.94809048e-05,9.0256437e-05
1.75,1.61641168e-06,1.08989148e-05,2.66643635e-05,4.70031681e-05,6.98488691e-05,9.12882539e-05
1.8,1.61813546e-06,1.09071932e-05,2.66874947e-05,4.70683477e-05,7.01451212e-05,9.22381111e-05
1.85,1.61984308e-06,1.0915252e-05,2.67094942e-05,4.71273061e-05,7.03838172e-05,9.31058555e-05
1.9,1.62153659e-06,1.0923109e-05,2.6730491e-05,4.7181187e-05,7.05788043e-05,9.38907642e-05
1.95,1.6232182e-06,1.09307804e-05,2.67505932e-05,4.72308528e-05,7.07412882e-05,9.45914295e-05
2.0,1.62489035e-06,1.0938281e-05,2.67698926e-05,4.72769676e-05,7.08795133e-05,9.52060509e-05
2.05,1.62655577e-06,1.09456246e-05,2.67884675e-05,4.7320053e-05,7.09993379e-05,9.57337607e-05
2.1,1.62821754e-06,1.09528242e-05,2.68063854e-05,4.7360525e-05,7.11049163e-05,9.61771207e-05
2.15,1.62987915e-06,1.09598926e-05,2.68237051e-05,4.73987207e-05,7.11992323e-05,9.65440115e-05
2.2,1.63154459e-06,1.09668427e-05,2.68404779e-05,4.74349164e-05,7.12844706e-05,9.68465754e-05
2.25,1.63321833e-06,1.0973688e-05,2.68567493e-05,4.74693419e-05,7.13622628e-05,9.70979965e-05
2.3,1.63490547e-06,1.09804427e-05,2.68725601e-05,4.75021895e-05,7.14338526e-05,9.73099003e-05
2.35,1.63661173e-06,1.09871223e-05,2.68879472e-05,4.75336223e-05,7.1500205e-05,9.7491441e-05
2.4,1.63834353e-06,1.09937441e-05,2.69029449e-05,4.75637795e-05,7.15620819e-05,9.76494642e-05
2.45,1.64010805e-06,1.10003275e-05,2.69175854e-05,4.75927809e-05,7.16200936e-05,9.77890077e-05
2.5,1.64191323e-06,1.10068941e-05,2.69319002e-05,4.76207308e-05,7.1674736e-05,9.79137888e-05
2.55,1.64376787e-06,1.10134687e-05,2.69459205e-05,4.76477202e-05,7.17264171e-05,9.80265821e-05
2.6,1.64568162e-06,1.10200793e-05,2.69596787e-05,4.76738297e-05,7.17754757e-05,9.812949e-05
2.65,1.64766507e-06,1.10267577e-05,2.69732086e-05,4.76991313e-05,7.18221969e-05,9.82241315e-05
2.7,1.6497297e-06,1.10335396e-05,2.69865474e-05,4.77236903e-05,7.18668219e-05,9.83117731e-05
2.75,1.65188802e-06,1.10404652e-05,2.69997356e-05,4.7747567e-05,7.1909557e-05,9.83934206e-05
2.8,1.65415348e-06,1.10475794e-05,2.70128188e-05,4.77708182e-05,7.19505801e-05,9.84698835e-05
2.85,1.65654058e-06,1.10549323e-05,2.70258483e-05,4.77934993e-05,7.19900456e-05,9.85418218e-05
2.9,1.65906485e-06,1.10625791e-05,2.70388823e-05,4.78156651e-05,7.20280887e-05,9.86097798e-05
2.95,1.66174285e-06,1.1070581e-05,2.70519867e-05,4.7837372e-05,7.20648289e-05,9.86742109e-05
3.0,1.66459224e-06,1.10790048e-05,2.70652362e-05,4.78586798e-05,7.21003734e-05,9.87354969e-05
3.05,1.6676317e-06,1.10879235e-05,2.70787151e-05,4.7879653e-05,7.2134819e-05,9.87939615e-05
3.1,1.67088104e-06,1.10974164e-05,2.70925183e-05,4.79003627e-05,7.21682556e-05,9.88498818e-05
3.15,1.67436111e-06,1.11075692e-05,2.71067521e-05,4.79208884e-05,7.22007679e-05,9.89034969e-05
3.2,1.67809386e-06,1.11184743e-05,2.71215348e-05,4.79413201e-05,7.22324381e-05,9.89550145e-05
3.25,1.68210231e-06,1.11302308e-05,2.71369979e-05,4.79617592e-05,7.22633484e-05,9.90046166e-05
3.3,1.68641055e-06,1.11429447e-05,2.71532861e-05,4.79823212e-05,7.22935834e-05,9.90524643e-05
