vds,vb1,vb2,vb3,vb4,vb5,vb6
0.0,-0.0,-0.0,-0.0,-0.0,-0.0,-0.0
0.05,1.26454049e-06,3.61378637e-06,5.71498527e-06,7.48385842e-06,8.91369991e-06,1.00261448e-05
0.1,2.15432287e-06,6.83022601e-06,1.10504065e-05,1.46137347e-05,1.75009706e-05,1.97530703e-05
0.15,2.73750775e-06,9.71634715e-06,1.607322e-05,2.1456515e-05,2.58286306e-05,2.92475333e-05
0.2,3.03832559e-06,1.22884247e-05,2.07996195e-05,2.80283227e-05,3.39127356e-05,3.85255283e-05
0.25,3.1234506e-06,1.45507594e-05,2.52338069e-05,3.43332886e-05,4.17573491e-05,4.7591057e-05
0.3,3.13735653e-06,1.6504856e-05,2.93771514e-05,4.03727097e-05,4.93637004e-05,5.64452879e-05
0.35,3.14148813e-06,1.81516337e-05,3.32303541e-05,4.61472132e-05,5.67323494e-05,6.50887195e-05
0.4,3.1438083e-06,1.94920644e-05,3.67939601e-05,5.16572677e-05,6.3863697e-05,7.35216918e-05
0.45,3.14554475e-06,2.0527696e-05,4.00684812e-05,5.69033039e-05,7.07581062e-05,8.1744507e-05
0.5,3.14701594e-06,2.12622224e-05,4.30544272e-05,6.18857434e-05,7.74159308e-05,8.97574578e-05
0.55,3.14833876e-06,2.1708422e-05,4.57523183e-05,6.66050057e-05,8.38375214e-05,9.75608345e-05
0.6,3.14956692e-06,2.19145281e-05,4.81626965e-05,7.10615096e-05,9.00232281e-05,0.000105154926
0.65,3.15072923e-06,2.19870306e-05,5.02861463e-05,7.52556747e-05,9.59734001e-05,0.000112540022
0.7,3.15184285e-06,2.20150088e-05,5.21233373e-05,7.91879215e-05,0.000101688386,0.000119716409
0.75,3.15291889e-06,2.20299457e-05,5.36751241e-05,8.28586722e-05,0.000107168534,0.000126684375
0.8,3.15396494e-06,2.20401113e-05,5.49428024e-05,8.62683527e-05,0.000112414193,0.000133444207
0.85,3.15498647e-06,2.20480436e-05,5.59288512e-05,8.9417394e-05,0.000117425709,0.000139996193
0.9,3.15598752e-06,2.20547249e-05,5.66393271e-05,9.23062361e-05,0.000122203431,0.000146340618
0.95,3.1569712e-06,2.20606142e-05,5.70917393e-05,9.49353336e-05,0.000126747705,0.000152477767
1.0,3.15793994e-06,2.20659575e-05,5.73334581e-05,9.7305167e-05,0.00013105888,0.000158407927
1.05,3.15889568e-06,2.20709013e-05,5.74466837e-05,9.94162625e-05,0.000135137304,0.000164131383
1.1,3.15984001e-06,2.20755391e-05,5.75030261e-05,0.000101269233,0.000138983326,0.000169648417
1.15,3.16077422e-06,2.2079935e-05,5.75366847e-05,0.000102864864,0.000142597298,0.000174959316
1.2,3.16169941e-06,2.20841342e-05,5.75602854e-05,0.000104204315,0.000145979572,0.000180064363
1.25,3.16261649e-06,2.20881703e-05,5.75786707e-05,0.000105289629,0.000149130507,0.000184963841
1.3,3.16352626e-06,2.20920687e-05,5.75939696e-05,0.000106125108,0.000152050467,0.000189658035
1.35,3.16442939e-06,2.20958493e-05,5.76072536e-05,0.000106721153,0.000154739827,0.000194147228
1.4,3.16532647e-06,2.20995278e-05,5.7619124e-05,0.000107103355,0.000157198978,0.000198431703
1.45,3.16621802e-06,2.21031171e-05,5.76299488e-05,0.000107322799,0.000159428341,0.000202511744
1.5,3.16710453e-06,2.21066275e-05,5.76399682e-05,0.00010744456,0.000161428383,0.000206387636
1.55,3.16798643e-06,2.21100678e-05,5.76493478e-05,0.000107517589,0.000163199663,0.000210059664
1.6,3.16886417e-06,2.21134454e-05,5.76582063e-05,0.000107566989,0.000164742908,0.000213528115
1.65,3.1697382e-06,2.21167664e-05,5.76666321e-05,0.000107603974,0.00016605919,0.000216793277
1.7,3.17060902e-06,2.21200362e-05,5.76746923e-05,0.000107633715,0.000167150341,0.000219855443
1.75,3.17147722e-06,2.21232594e-05,5.76824396e-05,0.000107658822,0.00016801995,0.000222714908
1.8,3.17234352e-06,2.21264402e-05,5.76899159e-05,0.000107680742,0.00016867585,0.000225371978
1.85,3.17320881e-06,2.21295821e-05,5.7697155e-05,0.000107700346,0.000169135501,0.000227826968
1.9,3.17407423e-06,2.21326887e-05,5.77041848e-05,0.000107718195,0.000169433084,0.000230080211
1.95,3.17494122e-06,2.21357631e-05,5.77110285e-05,0.000107734666,0.000169617528,0.000232132069
2.0,3.17581161e-06,2.21388088e-05,5.77177056e-05,0.000107750029,0.000169735014,0.000233982957
2.05,3.17668771e-06,2.21418293e-05,5.77242327e-05,0.00010776448,0.000169815777,0.000235633376
2.1,3.17757236e-06,2.21448287e-05,5.77306239e-05,0.000107778167,0.000169875963,0.000237083993
2.15,3.17846908e-06,2.21478119e-05,5.77368917e-05,0.000107791205,0.000169923809,0.000238335798
2.2,3.17938211e-06,2.21507851e-05,5.7743047e-05,0.000107803685,0.000169963692,0.000239390451
2.25,3.18031657e-06,2.21537559e-05,5.77490996e-05,0.000107815679,0.000169998094,0.000240251071
2.3,3.18127851e-06,2.21567342e-05,5.77550585e-05,0.000107827246,0.000170028524,0.000240924011
2.35,3.18227503e-06,2.21597324e-05,5.77609324e-05,0.000107838435,0.000170055955,0.000241422397
2.4,3.18331439e-06,2.2162766e-05,5.77667303e-05,0.000107849288,0.000170081044,0.000241770786
2.45,3.18440609e-06,2.21658546e-05,5.77724618e-05,0.000107859839,0.000170104256,0.000242005394
2.5,3.18556094e-06,2.21690219e-05,5.77781378e-05,0.000107870118,0.000170125929,0.000242164554
2.55,3.18679119e-06,2.21722973e-05,5.77837715e-05,0.000107880149,0.00017014632,0.000242277711
2.6,3.18811056e-06,2.21757156e-05,5.77893792e-05,0.000107889956,0.000170165625,0.00024236312
2.65,3.18953435e-06,2.21793188e-05,5.77949816e-05,0.000107899558,0.000170183997,0.000242431154
2.7,3.19107946e-06,2.21831557e-05,5.78006045e-05,0.000107908973,0.000170201562,0.000242487705
2.75,3.19276447e-06,2.21872837e-05,5.78062812e-05,0.000107918218,0.000170218418,0.000242536254
2.8,3.19460966e-06,2.21917686e-05,5.78120529e-05,0.00010792731,0.00017023465,0.000242578969
2.85,3.19663707e-06,2.21966859e-05,5.78179713e-05,0.000107936264,0.000170250327,0.000242617263
2.9,3.19887047e-06,2.22021209e-05,5.78240998e-05,0.000107945102,0.000170265505,0.000242652104
2.95,3.20133547e-06,2.22081697e-05,5.78305157e-05,0.000107953844,0.000170280236,0.000242684176
3.0,3.2040594e-06,2.22149393e-05,5.78373116e-05,0.000107962518,0.000170294561,0.000242713982
3.05,3.20707141e-06,2.22225483e-05,5.7844598e-05,0.000107971158,0.000170308518,0.000242741898
3.1,3.2104024e-06,2.22311274e-05,5.78525045e-05,0.000107979805,0.000170322139,0.000242768217
3.15,3.21408502e-06,2.22408194e-05,5.7861182e-05,0.000107988515,0.000170335454,0.000242793166
3.2,3.21815363e-06,2.22517796e-05,5.78708044e-05,0.000107997354,0.000170348489,0.00024281693
3.25,3.22264427e-06,2.22641759e-05,5.78815706e-05,0.000108006408,0.000170361272,0.000242839656
3.3,3.22759463e-06,2.22781892e-05,5.78937055e-05,0.000108015782,0.000170373828,0.000242861467
