vds,vb1,vb2,vb3,vb4,vb5,vb6
0.0,-0.0,-0.0,-0.0,-0.0,-0.0,-0.0
0.05,6.21368605e-07,1.77943967e-06,2.81936489e-06,3.69914076e-06,4.41447385e-06,4.97485522e-06
0.1,1.05741595e-06,3.3621809e-06,5.45059092e-06,7.22257047e-06,8.66667627e-06,9.80075688e-06
0.15,1.34222088e-06,4.78173084e-06,7.92715075e-06,1.06037283e-05,1.27900139e-05,1.45110817e-05
0.2,1.48798356e-06,6.04621998e-06,1.02571359e-05,1.3850672e-05,1.67925119e-05,1.91138253e-05
0.25,1.52853566e-06,7.15779182e-06,1.24426417e-05,1.6965463e-05,2.06761992e-05,2.36109867e-05
0.3,1.53513578e-06,8.11719209e-06,1.44843475e-05,1.99487458e-05,2.44416879e-05,2.80031486e-05
0.35,1.53712308e-06,8.92487432e-06,1.63825985e-05,2.28008302e-05,2.80892554e-05,3.22905585e-05
0.4,1.5382478e-06,9.58132024e-06,1.81376619e-05,2.55219466e-05,3.16190993e-05,3.64733848e-05
0.45,1.53909266e-06,1.00873073e-05,1.97497882e-05,2.81123065e-05,3.50313987e-05,4.05517768e-05
0.5,1.53980982e-06,1.04447208e-05,2.12192271e-05,3.05721167e-05,3.83263275e-05,4.45258793e-05
0.55,1.54045538e-06,1.06601628e-05,2.25462336e-05,3.29015832e-05,4.15040588e-05,4.83958358e-05
0.6,1.54105516e-06,1.07584312e-05,2.37310737e-05,3.51009115e-05,4.45647647e-05,5.21617891e-05
0.65,1.54162305e-06,1.07927564e-05,2.47740353e-05,3.71703076e-05,4.75086174e-05,5.58238819e-05
0.7,1.54216734e-06,1.08061036e-05,2.56754495e-05,3.9109978e-05,5.03357885e-05,5.93822566e-05
0.75,1.5426934e-06,1.08132983e-05,2.64357427e-05,4.09201301e-05,5.30464497e-05,6.28370553e-05
0.8,1.5432049e-06,1.08182254e-05,2.70555693e-05,4.26009729e-05,5.56407722e-05,6.618842e-05
0.85,1.54370449e-06,1.08220843e-05,2.75361987e-05,4.41527184e-05,5.81189274e-05,6.94364924e-05
0.9,1.54419413e-06,1.08253421e-05,2.78807706e-05,4.55755831e-05,6.04810865e-05,7.25814138e-05
0.95,1.54467532e-06,1.08282179e-05,2.80984089e-05,4.68697908e-05,6.27274206e-05,7.56233256e-05
1.0,1.54514925e-06,1.083083e-05,2.82135202e-05,4.80355789e-05,6.4858101e-05,7.85623688e-05
1.05,1.54561685e-06,1.08332485e-05,2.82672195e-05,4.9073208e-05,6.68732996e-05,8.13986842e-05
1.1,1.5460789e-06,1.08355187e-05,2.82940963e-05,4.99829835e-05,6.87731883e-05,8.41324126e-05
1.15,1.54653602e-06,1.08376714e-05,2.83102847e-05,5.07653004e-05,7.05579402e-05,8.67636944e-05
1.2,1.54698875e-06,1.08397286e-05,2.83217063e-05,5.14207489e-05,7.22277298e-05,8.929267e-05
1.25,1.54743754e-06,1.08417064e-05,2.83306407e-05,5.19503802e-05,7.37827335e-05,9.17194798e-05
1.3,1.54788276e-06,1.08436172e-05,2.83380959e-05,5.23564346e-05,7.52231314e-05,9.40442638e-05
1.35,1.54832475e-06,1.08454706e-05,2.83445816e-05,5.26443639e-05,7.65491087e-05,9.62671624e-05
1.4,1.54876379e-06,1.08472744e-05,2.83503852e-05,5.2827516e-05,7.77608594e-05,9.83883158e-05
1.45,1.54920014e-06,1.08490346e-05,2.83556831e-05,5.29319908e-05,7.88585919e-05,0.000100407864
1.5,1.54963403e-06,1.08507563e-05,2.83605906e-05,5.29899789e-05,7.98425403e-05,0.000102325949
1.55,1.55006568e-06,1.08524439e-05,2.83651878e-05,5.30249659e-05,8.07129843e-05,0.00010414271
1.6,1.5504953e-06,1.08541008e-05,2.83695317e-05,5.30487893e-05,8.14702926e-05,0.00010585829
1.65,1.55092312e-06,1.08557302e-05,2.83736652e-05,5.30667175e-05,8.21150154e-05,0.000107472832
1.7,1.55134939e-06,1.08573345e-05,2.83776207e-05,5.30811869e-05,8.26481012e-05,0.00010898648
1.75,1.55177439e-06,1.08589161e-05,2.83814238e-05,5.30934336e-05,8.30714296e-05,0.000110399382
1.8,1.55219848e-06,1.08604769e-05,2.83850947e-05,5.31041463e-05,8.33891222e-05,0.000111711688
1.85,1.55262211e-06,1.08620188e-05,2.838865e-05,5.31137412e-05,8.36103382e-05,0.000112923554
1.9,1.55304584e-06,1.08635435e-05,2.83921032e-05,5.31224862e-05,8.37527194e-05,0.000114035148
1.95,1.55347039e-06,1.08650524e-05,2.83954654e-05,5.31305636e-05,8.38408234e-05,0.00011504665
2.0,1.55389667e-06,1.08665473e-05,2.83987463e-05,5.31381027e-05,8.38971377e-05,0.000115958268
2.05,1.55432583e-06,1.086803e-05,2.84019539e-05,5.31451982e-05,8.3936063e-05,0.000116770256
2.1,1.55475927e-06,1.08695025e-05,2.84050952e-05,5.31519221e-05,8.39652177e-05,0.000117482954
2.15,1.55519875e-06,1.08709673e-05,2.84081761e-05,5.31583297e-05,8.3988487e-05,0.000118096874
2.2,1.55564638e-06,1.08724273e-05,2.84112019e-05,5.31644649e-05,8.40079402e-05,0.00011861288
2.25,1.55610469e-06,1.08738866e-05,2.84141776e-05,5.31703631e-05,8.40247575e-05,0.000119032611
2.3,1.55657668e-06,1.08753499e-05,2.84171074e-05,5.31760529e-05,8.40396583e-05,0.000119359421
2.35,1.55706587e-06,1.08768236e-05,2.84199958e-05,5.31815583e-05,8.40531078e-05,0.000119600213
2.4,1.55757636e-06,1.08783154e-05,2.84228471e-05,5.31868992e-05,8.40654219e-05,0.000119767728
2.45,1.55811283e-06,1.0879835e-05,2.84256661e-05,5.31920924e-05,8.40768241e-05,0.000119880306
2.5,1.55868066e-06,1.08813945e-05,2.84284584e-05,5.31971523e-05,8.40874783e-05,0.000119956821
2.55,1.55928589e-06,1.08830084e-05,2.84312304e-05,5.32020913e-05,8.40975077e-05,0.000120011448
2.6,1.5599353e-06,1.08846942e-05,2.84339904e-05,5.32069204e-05,8.41070074e-05,0.000120052863
2.65,1.56063646e-06,1.08864728e-05,2.84367488e-05,5.32116491e-05,8.41160523e-05,0.000120085977
2.7,1.56139771e-06,1.08883686e-05,2.84395187e-05,5.32162863e-05,8.41247025e-05,0.000120113584
2.75,1.56222823e-06,1.08904101e-05,2.84423168e-05,5.32208403e-05,8.41330068e-05,0.000120137339
2.8,1.56313802e-06,1.08926303e-05,2.84451639e-05,5.32253192e-05,8.41410055e-05,0.000120158277
2.85,1.56413795e-06,1.08950666e-05,2.8448086e-05,5.32297317e-05,8.41487322e-05,0.000120177074
2.9,1.56523977e-06,1.08977615e-05,2.8451115e-05,5.32340871e-05,8.41562153e-05,0.000120194196
2.95,1.56645606e-06,1.09007628e-05,2.84542897e-05,5.32383968e-05,8.41634789e-05,0.000120209971
3.0,1.56780033e-06,1.09041237e-05,2.84576567e-05,5.32426743e-05,8.41705438e-05,0.000120224643
3.05,1.56928692e-06,1.09079032e-05,2.84612713e-05,5.32469366e-05,8.41774282e-05,0.000120238393
3.1,1.57093106e-06,1.0912166e-05,2.84651985e-05,5.32512053e-05,8.41841479e-05,0.000120251364
3.15,1.57274881e-06,1.09169831e-05,2.84695139e-05,5.32555078e-05,8.41907174e-05,0.000120263665
3.2,1.5747571e-06,1.09224314e-05,2.84743046e-05,5.32598784e-05,8.41971501e-05,0.000120275387
3.25,1.57697366e-06,1.09285943e-05,2.84796699e-05,5.32643601e-05,8.42034591e-05,0.000120286601
3.3,1.57941703e-06,1.09355614e-05,2.84857221e-05,5.32690063e-05,8.42096578e-05,0.000120297367
