vds,vb1,vb2,vb3,vb4,vb5,vb6
0.0,-0.0,-0.0,-0.0,-0.0,-0.0,-0.0
0.05,1.10315452e-07,3.19237625e-07,5.11025595e-07,6.78618094e-07,8.2049628e-07,9.37157731e-07
0.1,1.91061817e-07,6.06606335e-07,9.91230732e-07,1.32817827e-06,1.61395178e-06,1.84936256e-06
0.15,2.45745993e-07,8.65521561e-07,1.44402252e-06,1.95207847e-06,2.38375493e-06,2.73999375e-06
0.2,2.75818582e-07,1.09686117e-06,1.87026968e-06,2.5511782e-06,3.13075579e-06,3.60989222e-06
0.25,2.8584606e-07,1.3009048e-06,2.27024106e-06,3.12573711e-06,3.8552046e-06,4.4592991e-06
0.3,2.87779608e-07,1.47779353e-06,2.64406368e-06,3.67587292e-06,4.55720969e-06,5.28831369e-06
0.35,2.88365759e-07,1.62764215e-06,2.99183095e-06,4.20166961e-06,5.23684569e-06,6.0970016e-06
0.4,2.88694652e-07,1.7505755e-06,3.31362832e-06,4.70320299e-06,5.89417908e-06,6.88542036e-06
0.45,2.88938531e-07,1.84676721e-06,3.60953951e-06,5.18054675e-06,6.52927426e-06,7.65362542e-06
0.5,2.89142359e-07,1.91655941e-06,3.87964823e-06,5.6337739e-06,7.14219491e-06,8.40167159e-06
0.55,2.89323e-07,1.96096001e-06,4.12403895e-06,6.06295712e-06,7.73300442e-06,9.1296134e-06
0.6,2.8948843e-07,1.98351201e-06,4.34279796e-06,6.46816888e-06,8.30176589e-06,9.83750514e-06
0.65,2.8964304e-07,1.99257899e-06,4.53601519e-06,6.84948147e-06,8.84854222e-06,1.05254009e-05
0.7,2.8978952e-07,1.99643344e-06,4.70378799e-06,7.20696707e-06,9.37339605e-06,1.11933546e-05
0.75,2.89929641e-07,1.99858971e-06,4.84622994e-06,7.54069786e-06,9.87638985e-06,1.184142e-05
0.8,2.90064641e-07,2.00008346e-06,4.96349304e-06,7.85074608e-06,1.03575858e-05,1.24696506e-05
0.85,2.90195418e-07,2.00125178e-06,5.05583039e-06,8.13718427e-06,1.08170461e-05,1.30780997e-05
0.9,2.9032265e-07,2.0022308e-06,5.1237921e-06,8.40008558e-06,1.12548324e-05,1.36668205e-05
0.95,2.90446859e-07,2.00308642e-06,5.16884465e-06,8.6395243e-06,1.16710064e-05,1.4235866e-05
1.0,2.90568458e-07,2.00385508e-06,5.19479485e-06,8.85557687e-06,1.20656297e-05,1.4785289e-05
1.05,2.9068778e-07,2.00455903e-06,5.20835408e-06,9.04832374e-06,1.24387637e-05,1.5315142e-05
1.1,2.90805098e-07,2.00521284e-06,5.21583341e-06,9.21785311e-06,1.27904696e-05,1.58254775e-05
1.15,2.90920635e-07,2.00582657e-06,5.22060934e-06,9.36426907e-06,1.31208088e-05,1.63163477e-05
1.2,2.91034582e-07,2.00640751e-06,5.22407518e-06,9.4877105e-06,1.34298425e-05,1.67878049e-05
1.25,2.91147099e-07,2.00696108e-06,5.22681494e-06,9.58839911e-06,1.37176323e-05,1.72399008e-05
1.3,2.91258322e-07,2.00749146e-06,5.22910362e-06,9.66676967e-06,1.398424e-05,1.76726873e-05
1.35,2.9136837e-07,2.00800192e-06,5.2310872e-06,9.72382431e-06,1.42297283e-05,1.80862159e-05
1.4,2.91477347e-07,2.00849508e-06,5.23285113e-06,9.76191479e-06,1.44541612e-05,1.84805382e-05
1.45,2.91585346e-07,2.00897305e-06,5.23444943e-06,9.78548184e-06,1.46576048e-05,1.88557055e-05
1.5,2.9169245e-07,2.0094376e-06,5.2359183e-06,9.79996732e-06,1.48401298e-05,1.92117689e-05
1.55,2.9179874e-07,2.0098902e-06,5.23728323e-06,9.80951537e-06,1.5001815e-05,1.95487798e-05
1.6,2.91904294e-07,2.01033207e-06,5.23856278e-06,9.81640609e-06,1.51427555e-05,1.98667891e-05
1.65,2.92009195e-07,2.01076427e-06,5.23977094e-06,9.82176408e-06,1.52630817e-05,2.0165848e-05
1.7,2.92113535e-07,2.01118771e-06,5.24091849e-06,9.82616027e-06,1.53630039e-05,2.04460075e-05
1.75,2.92217422e-07,2.01160317e-06,5.24201392e-06,9.82990711e-06,1.54429267e-05,2.07073192e-05
1.8,2.92320989e-07,2.01201137e-06,5.24306406e-06,9.83318937e-06,1.55037251e-05,2.09498346e-05
1.85,2.92424404e-07,2.01241291e-06,5.24407446e-06,9.83612391e-06,1.55472808e-05,2.11736063e-05
1.9,2.92527879e-07,2.0128084e-06,5.2450497e-06,9.83878885e-06,1.55769513e-05,2.13786879e-05
1.95,2.92631684e-07,2.01319839e-06,5.24599362e-06,9.84123876e-06,1.5596985e-05,2.15651356e-05
2.0,2.92736159e-07,2.01358348e-06,5.24690945e-06,9.84351325e-06,1.56110507e-05,2.17330094e-05
2.05,2.92841734e-07,2.01396429e-06,5.24779996e-06,9.8456419e-06,1.56215335e-05,2.1882378e-05
2.1,2.92948937e-07,2.01434157e-06,5.24866752e-06,9.84764741e-06,1.56297947e-05,2.20133266e-05
2.15,2.93058418e-07,2.01471619e-06,5.2495142e-06,9.84954756e-06,1.56365997e-05,2.21259771e-05
2.2,2.93170964e-07,2.01508926e-06,5.25034185e-06,9.85135654e-06,1.56423961e-05,2.22205353e-05
2.25,2.93287514e-07,2.01546217e-06,5.25115211e-06,9.85308584e-06,1.564746e-05,2.22974036e-05
2.3,2.93409181e-07,2.0158367e-06,5.25194655e-06,9.8547449e-06,1.56519706e-05,2.2357431e-05
2.35,2.93537267e-07,2.01621508e-06,5.25272667e-06,9.85634161e-06,1.56560499e-05,2.24023153e-05
2.4,2.93673278e-07,2.01660013e-06,5.25349405e-06,9.85788255e-06,1.56597841e-05,2.24348372e-05
2.45,2.93818946e-07,2.01699534e-06,5.25425038e-06,9.85937335e-06,1.56632361e-05,2.24583563e-05
2.5,2.93976236e-07,2.01740501e-06,5.25499766e-06,9.86081883e-06,1.56664534e-05,2.24758457e-05
2.55,2.94147369e-07,2.01783435e-06,5.2557383e-06,9.86222317e-06,1.56694723e-05,2.24894025e-05
2.6,2.94334827e-07,2.01828961e-06,5.2564753e-06,9.86359003e-06,1.56723215e-05,2.25003486e-05
2.65,2.94541369e-07,2.01877823e-06,5.25721246e-06,9.8649227e-06,1.56750239e-05,2.25094961e-05
2.7,2.94770038e-07,2.0193089e-06,5.25795459e-06,9.86622421e-06,1.56775979e-05,2.25173533e-05
2.75,2.9502417e-07,2.01989176e-06,5.25870777e-06,9.86749744e-06,1.56800589e-05,2.25242498e-05
2.8,2.95307402e-07,2.02053843e-06,5.25947962e-06,9.86874532e-06,1.56824196e-05,2.25304078e-05
2.85,2.95623674e-07,2.02126218e-06,5.26027958e-06,9.86997097e-06,1.56846906e-05,2.25359825e-05
2.9,2.95977233e-07,2.022078e-06,5.26111923e-06,9.8711779e-06,1.56868809e-05,2.2541086e-05
2.95,2.96372635e-07,2.02300271e-06,5.2620126e-06,9.87237034e-06,1.56889985e-05,2.25458016e-05
3.0,2.96814747e-07,2.02405501e-06,5.2629765e-06,9.87355347e-06,1.56910499e-05,2.25501925e-05
3.05,2.97308739e-07,2.02525558e-06,5.26403082e-06,9.87473383e-06,1.56930412e-05,2.25543078e-05
3.1,2.97860087e-07,2.02662713e-06,5.26519885e-06,9.87591967e-06,1.56949776e-05,2.25581866e-05
3.15,2.98474566e-07,2.02819444e-06,5.26650761e-06,9.87712146e-06,1.5696864e-05,2.25618599e-05
3.2,2.99158244e-07,2.02998439e-06,5.26798813e-06,9.87835234e-06,1.56987051e-05,2.25653534e-05
3.25,2.99917475e-07,2.032026e-06,5.26967573e-06,9.87962866e-06,1.57005055e-05,2.25686882e-05
3.3,3.00758893e-07,2.03435045e-06,5.27161026e-06,9.88097058e-06,1.57022702e-05,2.25718818e-05
