vds,vb1,vb2,vb3,vb4,vb5,vb6
0.0,-0.0,-0.0,-0.0,-0.0,-0.0,-0.0
0.05,9.72646806e-07,2.89121025e-06,4.51227084e-06,5.87342534e-06,7.02579616e-06,8.0091145e-06
0.1,1.74182086e-06,5.52902798e-06,8.75630281e-06,1.1473911e-05,1.3779099e-05,1.57491715e-05
0.15,2.31922539e-06,7.92416984e-06,1.27425188e-05,1.68114296e-05,2.02693853e-05,2.32291557e-05
0.2,2.71708358e-06,1.00845535e-05,1.64785537e-05,2.18931979e-05,2.65034066e-05,3.04553531e-05
0.25,2.95730034e-06,1.20172659e-05,1.99712042e-05,2.67256244e-05,3.24871347e-05,3.74332956e-05
0.3,3.08348358e-06,1.3729064e-05,2.32268983e-05,3.13147755e-05,3.82262265e-05,4.41682233e-05
0.35,3.15014722e-06,1.52265527e-05,2.62518143e-05,3.56664915e-05,4.37261382e-05,5.06651987e-05
0.4,3.19188856e-06,1.65163422e-05,2.90519172e-05,3.97864195e-05,4.8992157e-05,5.69291368e-05
0.45,3.22259871e-06,1.76053288e-05,3.16329758e-05,4.36800264e-05,5.40294124e-05,6.29648155e-05
0.5,3.24749292e-06,1.85013179e-05,3.40005763e-05,4.73526065e-05,5.88428834e-05,6.87768819e-05
0.55,3.26882491e-06,1.92144559e-05,3.61601359e-05,5.08092878e-05,6.34374035e-05,7.43698562e-05
0.6,3.28773858e-06,1.97601755e-05,3.81169209e-05,5.40550366e-05,6.78176649e-05,7.97481363e-05
0.65,3.30489285e-06,2.01631238e-05,3.98760728e-05,5.70946613e-05,7.19882231e-05,8.49160008e-05
0.7,3.32070391e-06,2.04570419e-05,4.14426555e-05,5.99328148e-05,7.59534998e-05,8.9877613e-05
0.75,3.33545293e-06,2.06762675e-05,4.28217527e-05,6.25739939e-05,7.97177855e-05,9.46370234e-05
0.8,3.34933961e-06,2.08469392e-05,4.40186951e-05,6.50225354e-05,8.32852411e-05,9.91981723e-05
0.85,3.36251137e-06,2.09857394e-05,4.50396115e-05,6.72826059e-05,8.66598975e-05,0.000103564892
0.9,3.37508041e-06,2.11027501e-05,4.58926906e-05,6.93581829e-05,8.98456532e-05,0.000107740908
0.95,3.3871342e-06,2.12041629e-05,4.65904649e-05,7.12530231e-05,9.28462683e-05,0.00011172984
1.0,3.39874238e-06,2.12939414e-05,4.71520796e-05,7.29706167e-05,9.56653531e-05,0.000115535201
1.05,3.40996135e-06,2.13747396e-05,4.76024848e-05,7.45141441e-05,9.83063482e-05,0.000119160392
1.1,3.42083741e-06,2.14484092e-05,4.79676051e-05,7.58865083e-05,0.000100772491,0.000122608703
1.15,3.43140911e-06,2.15162885e-05,4.82695226e-05,7.7090675e-05,0.000103066762,0.000125883298
1.2,3.44170886e-06,2.15793742e-05,4.8524819e-05,7.81307968e-05,0.000105191798,0.000128987203
1.25,3.4517642e-06,2.16384274e-05,4.8745252e-05,7.90145144e-05,0.000107149766,0.000131923281
1.3,3.46159873e-06,2.16940424e-05,4.8939053e-05,7.97554923e-05,0.000108942197,0.000134694195
1.35,3.47123282e-06,2.17466918e-05,4.91120416e-05,8.03735496e-05,0.000110569823,0.000137302351
1.4,3.48068424e-06,2.17967572e-05,4.92684132e-05,8.08913195e-05,0.000112032642,0.000139749804
1.45,3.48996853e-06,2.18445514e-05,4.94112593e-05,8.13300699e-05,0.000113330645,0.000142038124
1.5,3.49909947e-06,2.18903339e-05,4.95429088e-05,8.17073734e-05,0.000114465781,0.000144168198
1.55,3.50808932e-06,2.19343223e-05,4.96651515e-05,8.20367736e-05,0.000115444898,0.000146139977
1.6,3.51694913e-06,2.19767008e-05,4.97793888e-05,8.23284093e-05,0.000116281632,0.000147952245
1.65,3.525689e-06,2.20176269e-05,4.98867362e-05,8.25898305e-05,0.00011699516,0.000149602629
1.7,3.53431824e-06,2.2057236e-05,4.99880947e-05,8.2826699e-05,0.000117606549,0.000151088342
1.75,3.54284566e-06,2.20956459e-05,5.00842017e-05,8.30433145e-05,0.000118135381,0.000152408202
1.8,3.55127971e-06,2.21329593e-05,5.0175668e-05,8.32429917e-05,0.000118598091,0.000153565635
1.85,3.55962869e-06,2.21692668e-05,5.02630049e-05,8.34283245e-05,0.000119007735,0.000154570898
1.9,3.56790095e-06,2.22046489e-05,5.03466442e-05,8.36013726e-05,0.000119374435,0.000155440535
1.95,3.57610508e-06,2.22391778e-05,5.04269542e-05,8.37637941e-05,0.000119705992,0.000156194329
2.0,3.58425009e-06,2.2272919e-05,5.05042513e-05,8.39169407e-05,0.000120008441,0.000156851929
2.05,3.59234559e-06,2.23059327e-05,5.05788094e-05,8.40619268e-05,0.000120286488,0.000157430739
2.1,3.60040199e-06,2.23382752e-05,5.06508673e-05,8.41996812e-05,0.00012054385,0.000157945191
2.15,3.60843069e-06,2.23700003e-05,5.07206349e-05,8.43309853e-05,0.000120783491,0.000158406854
2.2,3.61644422e-06,2.24011602e-05,5.0788298e-05,8.44565021e-05,0.000121007807,0.000158824874
2.25,3.62445645e-06,2.2431807e-05,5.08540228e-05,8.45767991e-05,0.000121218755,0.000159206467
2.3,3.63248277e-06,2.24619938e-05,5.09179593e-05,8.46923651e-05,0.00012141795,0.000159557345
2.35,3.64054021e-06,2.24917757e-05,5.0980245e-05,8.4803625e-05,0.000121606739,0.000159882069
2.4,3.64864765e-06,2.25212114e-05,5.10410077e-05,8.49109499e-05,0.000121786255,0.000160184311
2.45,3.65682597e-06,2.25503638e-05,5.11003685e-05,8.50146671e-05,0.00012195746,0.00016046706
2.5,3.66509818e-06,2.25793012e-05,5.11584444e-05,8.51150673e-05,0.000122121176,0.000160732769
2.55,3.6734896e-06,2.26080989e-05,5.12153516e-05,8.52124112e-05,0.00012227811,0.000160983474
2.6,3.68202798e-06,2.26368397e-05,5.12712073e-05,8.53069354e-05,0.000122428878,0.000161220877
2.65,3.69074365e-06,2.26656152e-05,5.13261331e-05,8.53988577e-05,0.000122574016,0.000161446414
2.7,3.69966967e-06,2.26945267e-05,5.13802572e-05,8.54883821e-05,0.000122713996,0.000161661307
2.75,3.70884191e-06,2.27236864e-05,5.14337171e-05,8.55757032e-05,0.000122849237,0.000161866603
2.8,3.71829925e-06,2.27532181e-05,5.14866621e-05,8.56610109e-05,0.000122980114,0.000162063204
2.85,3.72808362e-06,2.27832581e-05,5.15392558e-05,8.5744495e-05,0.000123106967,0.000162251895
2.9,3.73824018e-06,2.28139563e-05,5.15916783e-05,8.58263494e-05,0.000123230107,0.000162433362
2.95,3.7488174e-06,2.28454771e-05,5.16441291e-05,8.59067764e-05,0.000123349824,0.00016260821
3.0,3.75986713e-06,2.28779996e-05,5.16968288e-05,8.59859912e-05,0.000123466396,0.000162776974
3.05,3.77144477e-06,2.29117193e-05,5.17500217e-05,8.60642257e-05,0.000123580089,0.000162940137
3.1,3.78360932e-06,2.29468479e-05,5.18039777e-05,8.61417334e-05,0.000123691172,0.000163098133
3.15,3.79642343e-06,2.29836149e-05,5.18589947e-05,8.62187925e-05,0.000123799916,0.000163251363
3.2,3.80995356e-06,2.30222676e-05,5.19154001e-05,8.62957106e-05,0.000123906605,0.000163400202
3.25,3.82426998e-06,2.30630719e-05,5.19735533e-05,8.63728286e-05,0.000124011537,0.000163545005
3.3,3.83944688e-06,2.31063131e-05,5.20338469e-05,8.64505239e-05,0.000124115037,0.000163686121
