vds,vb1,vb2,vb3,vb4,vb5,vb6
0.0,-0.0,-0.0,-0.0,-0.0,-0.0,-0.0
0.05,1.1756736e-06,3.4801948e-06,5.53919979e-06,7.27587198e-06,8.68631846e-06,9.79206632e-06
0.1,2.03251417e-06,6.61690962e-06,1.07496439e-05,1.42455935e-05,1.70914358e-05,1.93280045e-05
0.15,2.60595012e-06,9.44444489e-06,1.56655136e-05,2.09432194e-05,2.5249282e-05,2.8641629e-05
0.2,2.91222307e-06,1.19717252e-05,2.02956058e-05,2.737742e-05,3.3168403e-05,3.77413713e-05
0.25,3.00803981e-06,1.42016931e-05,2.46427184e-05,3.35508664e-05,4.08513464e-05,4.66296647e-05
0.3,3.02623437e-06,1.61359068e-05,2.87082299e-05,3.94648102e-05,4.82992404e-05,5.5307524e-05
0.35,3.03211938e-06,1.77756654e-05,3.24931821e-05,4.5120165e-05,5.55128761e-05,6.37756272e-05
0.4,3.03554328e-06,1.91223778e-05,3.59985369e-05,5.05177625e-05,6.24929629e-05,7.20345712e-05
0.45,3.03812053e-06,2.01779674e-05,3.9225238e-05,5.56584125e-05,6.92401889e-05,8.00849323e-05
0.5,3.04028956e-06,2.09461249e-05,4.21742282e-05,6.05429177e-05,7.57552351e-05,8.792728e-05
0.55,3.0422192e-06,2.14375099e-05,4.48464573e-05,6.51720773e-05,8.2038779e-05,9.55621811e-05
0.6,3.04399062e-06,2.16895093e-05,4.7242892e-05,6.95466874e-05,8.80914955e-05,0.0001029902
0.65,3.04564903e-06,2.17918258e-05,4.93645333e-05,7.36675424e-05,9.39140567e-05,0.000110211899
0.7,3.04722228e-06,2.18353893e-05,5.12124527e-05,7.75354348e-05,9.95071323e-05,0.000117227837
0.75,3.04872883e-06,2.18596665e-05,5.27878741e-05,8.11511564e-05,0.00010487139,0.000124038575
0.8,3.05018159e-06,2.18764117e-05,5.40923787e-05,8.45154992e-05,0.000110007494,0.000130644667
0.85,3.05158997e-06,2.18894629e-05,5.51284738e-05,8.76292571e-05,0.000114916108,0.000137046668
0.9,3.05296108e-06,2.19003704e-05,5.59013532e-05,9.04932289e-05,0.000119597891,0.00014324513
0.95,3.0543004e-06,2.19098841e-05,5.64245229e-05,9.31082231e-05,0.000124053504,0.000149240604
1.0,3.05561227e-06,2.19184184e-05,5.67338702e-05,9.54750662e-05,0.000128283602,0.000155033638
1.05,3.05690018e-06,2.19262255e-05,5.68977806e-05,9.75946189e-05,0.000132288841,0.000160624779
1.1,3.058167e-06,2.19334703e-05,5.69872817e-05,9.94678076e-05,0.000136069874,0.000166014571
1.15,3.05941509e-06,2.19402666e-05,5.70433579e-05,0.000101095692,0.000139627354,0.000171203558
1.2,3.06064645e-06,2.19466965e-05,5.70834101e-05,0.000102479617,0.000142961934,0.000176192281
1.25,3.06186275e-06,2.19528212e-05,5.71147133e-05,0.000103621596,0.000146074268,0.000180981278
1.3,3.06306545e-06,2.19586875e-05,5.71406533e-05,0.000104525332,0.000148965013,0.000185571088
1.35,3.06425578e-06,2.19643322e-05,5.71630047e-05,0.000105199044,0.00015163483,0.000189962246
1.4,3.06543485e-06,2.19697845e-05,5.71827948e-05,0.000105662327,0.00015408439,0.000194155287
1.45,3.06660363e-06,2.19750683e-05,5.7200667e-05,0.000105955594,0.000156314383,0.000198150743
1.5,3.06776301e-06,2.19802031e-05,5.72170492e-05,0.000106135699,0.000158325531,0.000201949146
1.55,3.06891385e-06,2.19852054e-05,5.72322403e-05,0.00010625207,0.000160118616,0.000205551027
1.6,3.07005698e-06,2.19900889e-05,5.72464571e-05,0.000106334143,0.00016169454,0.000208956914
1.65,3.07119329e-06,2.19948654e-05,5.7259862e-05,0.000106396776,0.000163054458,0.000212167337
1.7,3.07232379e-06,2.1999545e-05,5.72725797e-05,0.00010644745,0.000164200083,0.000215182824
1.75,3.07344967e-06,2.20041364e-05,5.7284708e-05,0.000106490195,0.00016513447,0.000218003906
1.8,3.07457239e-06,2.20086474e-05,5.72963252e-05,0.000106527348,0.000165863969,0.000220631114
1.85,3.07569379e-06,2.2013085e-05,5.73074949e-05,0.000106560366,0.000166402594,0.000223064984
1.9,3.0768162e-06,2.20174557e-05,5.73182694e-05,0.000106590209,0.0001667782,0.000225306061
1.95,3.0779426e-06,2.20217659e-05,5.73286924e-05,0.00010661754,0.000167032436,0.000227354904
2.0,3.07907675e-06,2.2026022e-05,5.73388006e-05,0.000106642836,0.000167207839,0.000229212099
2.05,3.08022335e-06,2.20302311e-05,5.73486254e-05,0.000106666449,0.000167335413,0.000230878285
2.1,3.08138821e-06,2.20344014e-05,5.73581936e-05,0.000106688648,0.000167433728,0.000232354203
2.15,3.08257844e-06,2.20385428e-05,5.73675288e-05,0.000106709643,0.000167513277,0.000233640818
2.2,3.08380264e-06,2.20426675e-05,5.73766515e-05,0.000106729599,0.000167580104,0.000234739584
2.25,3.08507108e-06,2.20467911e-05,5.73855804e-05,0.000106748651,0.000167637864,0.00023565312
2.3,3.08639587e-06,2.20509335e-05,5.73943328e-05,0.000106766907,0.000167688883,0.000236386789
2.35,3.08779118e-06,2.20551195e-05,5.74029255e-05,0.000106784459,0.000167734715,0.000236951931
2.4,3.08927339e-06,2.20593805e-05,5.74113758e-05,0.000106801383,0.000167776444,0.000237370016
2.45,3.09086126e-06,2.20637556e-05,5.74197024e-05,0.000106817743,0.000167814848,0.000237672731
2.5,3.09257612e-06,2.20682925e-05,5.74279271e-05,0.000106833595,0.000167850508,0.000237894106
2.55,3.09444198e-06,2.20730494e-05,5.74360761e-05,0.000106848985,0.000167883865,0.000238061603
2.6,3.09648568e-06,2.20780959e-05,5.74441819e-05,0.000106863956,0.000167915263,0.000238193692
2.65,3.098737e-06,2.20835146e-05,5.74522856e-05,0.000106878545,0.000167944974,0.000238301892
2.7,3.10122876e-06,2.20894025e-05,5.74604395e-05,0.000106892785,0.000167973219,0.000238393341
2.75,3.1039969e-06,2.20958719e-05,5.74687095e-05,0.000106906709,0.000168000175,0.000238472582
2.8,3.10708057e-06,2.21030523e-05,5.74771781e-05,0.000106920348,0.000168025993,0.00023854261
2.85,3.11052214e-06,2.2111091e-05,5.7485948e-05,0.000106933736,0.000168050797,0.000238605477
2.9,3.11436724e-06,2.21201545e-05,5.74951452e-05,0.000106946911,0.000168074691,0.000238662636
2.95,3.11866479e-06,2.21304294e-05,5.75049222e-05,0.000106959916,0.000168097766,0.00023871515
3.0,3.12346697e-06,2.21421234e-05,5.75154621e-05,0.000106972806,0.000168120098,0.000238763813
3.05,3.12882921e-06,2.21554656e-05,5.75269817e-05,0.00010698565,0.000168141756,0.000238809237
3.1,3.13481016e-06,2.21707079e-05,5.75397353e-05,0.000106998533,0.0001681628,0.000238851899
3.15,3.14147163e-06,2.21881248e-05,5.75540177e-05,0.000107011564,0.000168183283,0.000238892181
3.2,3.14887853e-06,2.22080143e-05,5.75701681e-05,0.00010702488,0.000168203257,0.000238930389
3.25,3.15709877e-06,2.22306977e-05,5.75885723e-05,0.000107038654,0.000168222773,0.000238966776
3.3,3.16620323e-06,2.22565201e-05,5.76096665e-05,0.000107053095,0.000168241883,0.000239001552
