vds,vb1,vb2,vb3,vb4,vb5,vb6
0.0,-0.0,-0.0,-0.0,-0.0,-0.0,-0.0
0.05,3.08470145e-08,7.84336301e-08,1.22053269e-07,1.60283857e-07,1.92709587e-07,2.19384763e-07
0.1,5.38629586e-08,1.48693702e-07,2.36211998e-07,3.13097681e-07,3.78424698e-07,4.32261896e-07
0.15,7.05309049e-08,2.1225404e-07,3.43948887e-07,4.59912993e-07,5.58615645e-07,6.40100542e-07
0.2,8.12503834e-08,2.69471804e-07,4.45619855e-07,6.01084522e-07,7.33635945e-07,8.43253055e-07
0.25,8.64096664e-08,3.20440554e-07,5.41316982e-07,7.36703152e-07,9.03575276e-07,1.04180795e-06
0.3,8.77576686e-08,3.65191971e-07,6.31070029e-07,8.66797425e-07,1.06846097e-06,1.23579142e-06
0.35,8.80197236e-08,4.03743951e-07,7.14894038e-07,9.91381146e-07,1.22830563e-06,1.42521488e-06
0.4,8.81148482e-08,4.36113047e-07,7.92800602e-07,1.11046462e-06,1.38311835e-06,1.6100863e-06
0.45,8.81724976e-08,4.62320426e-07,8.6480054e-07,1.22405733e-06,1.5329074e-06,1.79041278e-06
0.5,8.82166658e-08,4.8240307e-07,9.30904574e-07,1.33216854e-06,1.67768084e-06,1.96620123e-06
0.55,8.82543089e-08,4.96454495e-07,9.91123539e-07,1.43480747e-06,1.81744665e-06,2.13745851e-06
0.6,8.82881595e-08,5.0480078e-07,1.04546855e-06,1.53198332e-06,1.95221281e-06,2.30419142e-06
0.65,8.83195312e-08,5.0857599e-07,1.09395126e-06,1.62370529e-06,2.08198727e-06,2.46640679e-06
0.7,8.83491493e-08,5.09944851e-07,1.13658431e-06,1.7099826e-06,2.20677796e-06,2.6241114e-06
0.75,8.83774561e-08,5.10513546e-07,1.17338241e-06,1.79082448e-06,2.32659282e-06,2.77731204e-06
0.8,8.84047418e-08,5.10833412e-07,1.20436469e-06,1.8662402e-06,2.44143976e-06,2.92601546e-06
0.85,8.84312077e-08,5.11056754e-07,1.22956102e-06,1.93623914e-06,2.55132669e-06,3.07022844e-06
0.9,8.84569994e-08,5.11233083e-07,1.24903025e-06,2.00083075e-06,2.6562615e-06,3.20995772e-06
0.95,8.8482226e-08,5.11382392e-07,1.26291859e-06,2.06002474e-06,2.75625208e-06,3.34521001e-06
1.0,8.85069714e-08,5.11514296e-07,1.27164366e-06,2.11383112e-06,2.85130634e-06,3.47599206e-06
1.05,8.8531302e-08,5.11634061e-07,1.27626942e-06,2.16226053e-06,2.94143216e-06,3.60231056e-06
1.1,8.85552707e-08,5.11744865e-07,1.27847739e-06,2.20532467e-06,3.02663746e-06,3.72417222e-06
1.15,8.85789208e-08,5.11848767e-07,1.27962013e-06,2.2430373e-06,3.10693017e-06,3.84158372e-06
1.2,8.86022884e-08,5.11947181e-07,1.28032551e-06,2.27541633e-06,3.18231824e-06,3.95455174e-06
1.25,8.86254034e-08,5.12041118e-07,1.28082991e-06,2.30248878e-06,3.25280972e-06,4.06308296e-06
1.3,8.86482912e-08,5.12131331e-07,1.2812271e-06,2.32430318e-06,3.31841273e-06,4.16718404e-06
1.35,8.86709737e-08,5.12218394e-07,1.28155957e-06,2.34096366e-06,3.37913554e-06,4.26686165e-06
1.4,8.86934695e-08,5.12302754e-07,1.28184919e-06,2.3527225e-06,3.43498666e-06,4.36212243e-06
1.45,8.87157953e-08,5.12384769e-07,1.28210844e-06,2.36018223e-06,3.48597502e-06,4.45297305e-06
1.5,8.87379657e-08,5.1246473e-07,1.28234508e-06,2.36446674e-06,3.53211021e-06,4.53942017e-06
1.55,8.87599941e-08,5.12542875e-07,1.28256419e-06,2.36689232e-06,3.57340299e-06,4.62147047e-06
1.6,8.87818933e-08,5.12619403e-07,1.28276932e-06,2.36838903e-06,3.6098663e-06,4.69913063e-06
1.65,8.88036761e-08,5.12694481e-07,1.28296303e-06,2.36942496e-06,3.64151729e-06,4.77240739e-06
1.7,8.88253558e-08,5.12768252e-07,1.28314723e-06,2.37021222e-06,3.66838183e-06,4.8413075e-06
1.75,8.88469479e-08,5.12840839e-07,1.28332338e-06,2.37085109e-06,3.69050516e-06,4.90583782e-06
1.8,8.88684704e-08,5.12912348e-07,1.28349262e-06,2.37139344e-06,3.707978e-06,4.96600529e-06
1.85,8.88899461e-08,5.12982874e-07,1.28365587e-06,2.37186861e-06,3.72099996e-06,5.02181706e-06
1.9,8.89114036e-08,5.13052502e-07,1.28381387e-06,2.37229451e-06,3.73000698e-06,5.07328051e-06
1.95,8.89328798e-08,5.13121312e-07,1.28396724e-06,2.37268278e-06,3.73580089e-06,5.12040351e-06
2.0,8.89544217e-08,5.1318938e-07,1.28411647e-06,2.37304141e-06,3.73942787e-06,5.16319463e-06
2.05,8.89760894e-08,5.13256788e-07,1.28426201e-06,2.37337606e-06,3.74179248e-06,5.20166373e-06
2.1,8.89979585e-08,5.13323621e-07,1.28440421e-06,2.37369092e-06,3.74345779e-06,5.23582297e-06
2.15,8.90201231e-08,5.13389984e-07,1.2845434e-06,2.37398917e-06,3.74472208e-06,5.26568889e-06
2.2,8.90426991e-08,5.13456e-07,1.28467984e-06,2.37427327e-06,3.74574006e-06,5.29128681e-06
2.25,8.90658275e-08,5.13521828e-07,1.28481378e-06,2.37454518e-06,3.74659585e-06,5.31266072e-06
2.3,8.90896774e-08,5.13587666e-07,1.28494543e-06,2.37480645e-06,3.74733826e-06,5.32989589e-06
2.35,8.91144498e-08,5.13653772e-07,1.285075e-06,2.37505838e-06,3.74799751e-06,5.34316857e-06
2.4,8.91403808e-08,5.13720473e-07,1.28520268e-06,2.37530204e-06,3.74859336e-06,5.35283558e-06
2.45,8.91677446e-08,5.13788182e-07,1.28532869e-06,2.3755383e-06,3.74913938e-06,5.35951905e-06
2.5,8.91968572e-08,5.13857416e-07,1.28545324e-06,2.37576793e-06,3.74964522e-06,5.364039e-06
2.55,8.92280791e-08,5.13928814e-07,1.28557661e-06,2.37599157e-06,3.75011798e-06,5.36716668e-06
2.6,8.92618181e-08,5.14003155e-07,1.2856991e-06,2.37620978e-06,3.75056307e-06,5.36944721e-06
2.65,8.92985322e-08,5.14081379e-07,1.28582112e-06,2.37642304e-06,3.75098464e-06,5.37120737e-06
2.7,8.93387315e-08,5.14164608e-07,1.28594319e-06,2.37663179e-06,3.75138599e-06,5.37263342e-06
2.75,8.93829805e-08,5.14254162e-07,1.28606595e-06,2.37683643e-06,3.75176976e-06,5.37383334e-06
2.8,8.94319e-08,5.14351583e-07,1.28619025e-06,2.37703733e-06,3.75213812e-06,5.37487253e-06
2.85,8.94861683e-08,5.14458653e-07,1.28631712e-06,2.37723487e-06,3.75249284e-06,5.37579261e-06
2.9,8.95465224e-08,5.14577409e-07,1.2864479e-06,2.37742944e-06,3.75283542e-06,5.3766213e-06
2.95,8.9613759e-08,5.14710164e-07,1.2865842e-06,2.3776215e-06,3.75316711e-06,5.37737786e-06
3.0,8.96887348e-08,5.14859522e-07,1.286728e-06,2.37781157e-06,3.75348899e-06,5.37807611e-06
3.05,8.97723666e-08,5.1502839e-07,1.28688168e-06,2.37800031e-06,3.75380198e-06,5.37872632e-06
3.1,8.98656318e-08,5.15219994e-07,1.28704809e-06,2.37818856e-06,3.75410689e-06,5.37933627e-06
3.15,8.99695671e-08,5.15437889e-07,1.28723057e-06,2.37837737e-06,3.75440444e-06,5.379912e-06
3.2,9.00852685e-08,5.15685964e-07,1.28743302e-06,2.3785681e-06,3.75469527e-06,5.38045831e-06
3.25,9.02138904e-08,5.15968457e-07,1.28765996e-06,2.37876246e-06,3.75497999e-06,5.38097905e-06
3.3,9.03566438e-08,5.16289954e-07,1.28791652e-06,2.37896261e-06,3.75525919e-06,5.38147736e-06
