vds,vb1,vb2,vb3,vb4,vb5,vb6
0.0,-0.0,-0.0,-0.0,-0.0,-0.0,-0.0
0.05,4.85286307e-06,1.59442852e-05,2.54787551e-05,3.33242005e-05,3.9634157e-05,4.46058561e-05
0.1,8.53293259e-06,3.04773234e-05,4.95226784e-05,6.52454377e-05,7.79246797e-05,8.7942101e-05
0.15,1.11037672e-05,4.36566888e-05,7.21877498e-05,9.58174536e-05,0.000114922892,0.000130057697
0.2,1.26303323e-05,5.55140528e-05,9.35040744e-05,0.000125068197,0.000150654402,0.000170975956
0.25,1.32999059e-05,6.60746192e-05,0.00011349528,0.000153019218,0.000185138492,0.000210713931
0.3,1.35245221e-05,7.53617871e-05,0.000132183107,0.000179690257,0.000218392709,0.000249287003
0.35,1.36173486e-05,8.33983925e-05,0.000149588505,0.000205100335,0.000250433952,0.000286709963
0.4,1.36724887e-05,9.02073222e-05,0.000165731893,0.000229268016,0.000281278732,0.000322997276
0.45,1.37129368e-05,9.58125024e-05,0.000180633227,0.000252211477,0.000310943241,0.000358163149
0.5,1.37459707e-05,0.000100241676,0.000194312022,0.000273948525,0.000339443371,0.000392221542
0.55,1.37745904e-05,0.00010353554,0.000206787348,0.000294496608,0.000366794725,0.000425186185
0.6,1.3800287e-05,0.000105777003,0.000218077824,0.000313872817,0.000393012617,0.000457070577
0.65,1.38239035e-05,0.000107151639,0.000228201594,0.000332093885,0.000418112084,0.00048788799
0.7,1.38459625e-05,0.000107953763,0.00023717629,0.000349176181,0.000442107884,0.000517651478
0.75,1.38668102e-05,0.000108448903,0.000245018992,0.000365135703,0.000465014499,0.000546373876
0.8,1.38866882e-05,0.000108788321,0.000251746287,0.000379988051,0.000486846136,0.000574067804
0.85,1.39057718e-05,0.000109043332,0.000257374924,0.000393748384,0.000507616729,0.000600745669
0.9,1.39241925e-05,0.000109248,0.000261925092,0.000406431358,0.000527339928,0.000626419671
0.95,1.39420513e-05,0.000109420007,0.000265433109,0.000418050997,0.000546029097,0.000651101797
1.0,1.39594278e-05,0.000109569377,0.000267984989,0.000428620497,0.000563697293,0.000674803828
1.05,1.39763856e-05,0.000109702232,0.000269754282,0.000438151873,0.000580357245,0.000697537335
1.1,1.39929766e-05,0.000109822551,0.000270972464,0.000446655388,0.000596021315,0.000719313677
1.15,1.40092434e-05,0.00010993305,0.000271842007,0.000454138687,0.000610701431,0.000740143994
1.2,1.40252217e-05,0.000110035659,0.000272496536,0.000460605863,0.000624408989,0.000760039202
1.25,1.40409416e-05,0.000110131795,0.000273014498,0.000466058105,0.00063715469,0.000779009974
1.3,1.40564287e-05,0.000110222528,0.000273441437,0.000470501846,0.000648948279,0.000797066727
1.35,1.40717051e-05,0.000110308684,0.000273804708,0.000473975185,0.000659798109,0.000814219582
1.4,1.40867899e-05,0.000110390916,0.000274121518,0.00047658665,0.000669710435,0.000830478324
1.45,1.41017e-05,0.000110469747,0.000274403194,0.000478516635,0.000678688277,0.00084585233
1.5,1.41164503e-05,0.0001105456,0.000274657504,0.000479959931,0.00068672972,0.000860350456
1.55,1.41310544e-05,0.000110618828,0.000274889968,0.000481072599,0.000693825934,0.000873980879
1.6,1.41455249e-05,0.000110689721,0.000275104627,0.000481961165,0.000699960867,0.000886750828
1.65,1.41598739e-05,0.000110758527,0.000275304522,0.000482694234,0.000705118873,0.000898666179
1.7,1.4174113e-05,0.000110825456,0.000275491987,0.00048331588,0.000709309881,0.000909730799
1.75,1.41882546e-05,0.000110890687,0.000275668855,0.000483855052,0.00071260644,0.000919945509
1.8,1.42023111e-05,0.000110954378,0.000275836587,0.000484331346,0.000715153193,0.000929306492
1.85,1.42162967e-05,0.000111016665,0.000275996365,0.000484758442,0.000717126311,0.000937803037
1.9,1.42302268e-05,0.00011107767,0.000276149159,0.000485146177,0.000718683913,0.000945415081
1.95,1.42441191e-05,0.000111137505,0.000276295773,0.000485501807,0.000719945273,0.000952112879
2.0,1.42579939e-05,0.000111196272,0.000276436881,0.000485830816,0.000720993466,0.000957864982
2.05,1.42718747e-05,0.000111254071,0.000276573057,0.000486137432,0.000721885025,0.000962662383
2.1,1.42857887e-05,0.000111310996,0.000276704787,0.000486424975,0.000722658631,0.00096655266
2.15,1.42997673e-05,0.000111367148,0.000276832494,0.000486696094,0.000723341242,0.000969652404
2.2,1.43138468e-05,0.000111422632,0.000276956546,0.000486952934,0.000723952077,0.000972118052
2.25,1.43280684e-05,0.000111477561,0.000277077269,0.000487197253,0.000724505161,0.000974102458
2.3,1.43424793e-05,0.000111532063,0.000277194955,0.000487430509,0.00072501096,0.000975730045
2.35,1.43571328e-05,0.000111586282,0.000277309873,0.000487653925,0.000725477442,0.000977093061
2.4,1.43720888e-05,0.000111640384,0.000277422274,0.000487868535,0.000725910793,0.000978257364
2.45,1.43874144e-05,0.000111694562,0.000277532406,0.00048807522,0.000726315888,0.000979269652
2.5,1.44031838e-05,0.000111749034,0.000277640514,0.000488274742,0.000726696634,0.000980163337
2.55,1.44194792e-05,0.000111804056,0.000277746857,0.000488467766,0.000727056201,0.000980962706
2.6,1.44363909e-05,0.000111859919,0.000277851712,0.000488654875,0.000727397192,0.000981685738
2.65,1.44540175e-05,0.000111916956,0.000277955386,0.000488836595,0.00072772177,0.000982345999
2.7,1.44724662e-05,0.000111975546,0.000278058223,0.000489013405,0.000728031749,0.000982953902
2.75,1.44918531e-05,0.000112036113,0.000278160618,0.000489185757,0.000728328665,0.00098351758
2.8,1.45123033e-05,0.000112099137,0.000278263024,0.000489354087,0.00072861383,0.000984043479
2.85,1.45339511e-05,0.00011216515,0.000278365964,0.000489518832,0.000728888377,0.00098453678
2.9,1.45569404e-05,0.000112234742,0.000278470041,0.000489680446,0.000729153292,0.000985001701
2.95,1.45814241e-05,0.000112308564,0.000278575946,0.000489839417,0.000729409447,0.000985441715
3.0,1.46075649e-05,0.000112387328,0.000278684468,0.000489996281,0.000729657623,0.000985859711
3.05,1.46355351e-05,0.000112471812,0.000278796508,0.000490151642,0.000729898535,0.000986258116
3.1,1.46655164e-05,0.000112562858,0.00027891308,0.000490306188,0.000730132856,0.00098663899
3.15,1.46977003e-05,0.000112661379,0.000279035326,0.000490460709,0.000730361238,0.000987004091
3.2,1.47322877e-05,0.000112768355,0.000279164519,0.000490616118,0.000730584334,0.000987354941
3.25,1.47694892e-05,0.000112884836,0.000279302072,0.000490773462,0.000730802823,0.000987692863
3.3,1.48095247e-05,0.000113011943,0.000279449548,0.000490933949,0.000731017435,0.000988019031
