vds,vb1,vb2,vb3,vb4,vb5,vb6
0.0,-0.0,-0.0,-0.0,-0.0,-0.0,-0.0
0.05,1.75974746e-05,6.08323834e-05,9.6130691e-05,0.000123995341,0.000145889789,0.000163023117
0.1,3.07671351e-05,0.000115801394,0.000186074905,0.000241806851,0.00028576056,0.000320277818
0.15,3.98295552e-05,0.000165178968,0.000270092116,0.000353674782,0.000419831964,0.00047196408
0.2,4.52300891e-05,0.000209177078,0.000348382898,0.000459782025,0.000548267623,0.000618226942
0.25,4.78872326e-05,0.000247987314,0.000421128066,0.00056029316,0.000671214117,0.000759195438
0.3,4.91071681e-05,0.000281791091,0.000488498175,0.000655363883,0.00078881034,0.000894991899
0.35,4.97699662e-05,0.00031076356,0.000550655946,0.000745143407,0.00090118985,0.00102573426
0.4,5.02139694e-05,0.000335077803,0.000607756974,0.000829775177,0.00100848155,0.0011515367
0.45,5.05551164e-05,0.000354914489,0.000659949926,0.000909397165,0.00111080997,0.00127250988
0.5,5.08390825e-05,0.000370488795,0.000707376464,0.000984142017,0.00120829544,0.00138876112
0.55,5.10871757e-05,0.000382120527,0.000750170879,0.00105413712,0.00130105417,0.00150039444
0.6,5.13107827e-05,0.000390356741,0.0007884593,0.00111950457,0.0013891984,0.00160751072
0.65,5.1516639e-05,0.000396012934,0.000822358383,0.00118036097,0.00147283643,0.00171020777
0.7,5.17090441e-05,0.000399955111,0.000851973738,0.00123681709,0.00155207263,0.00180858036
0.75,5.18909062e-05,0.000402839428,0.000877400216,0.00128897705,0.00162700737,0.00190272032
0.8,5.20642836e-05,0.000405070387,0.000898732183,0.0013369371,0.00169773693,0.00199271652
0.85,5.22306867e-05,0.000406880898,0.000916104542,0.00138078344,0.00176435315,0.00207865489
0.9,5.23912568e-05,0.000408406665,0.000929785554,0.00142058878,0.00182694301,0.00216061838
0.95,5.25468776e-05,0.000409730179,0.000940271506,0.00145640748,0.00188558776,0.0022386868
1.0,5.26982475e-05,0.000410904064,0.000948244864,0.00148826974,0.0019403617,0.00231293671
1.05,5.2845928e-05,0.000411963445,0.000954392192,0.00151618002,0.00199133009,0.00238344104
1.1,5.29903775e-05,0.000412932719,0.000959261444,0.00154013395,0.00203854598,0.00245026864
1.15,5.31319748e-05,0.000413829417,0.000963236998,0.00156017851,0.0020820454,0.00251348347
1.2,5.32710372e-05,0.000414666516,0.000966575313,0.00157651756,0.00212184062,0.0025731435
1.25,5.34078325e-05,0.000415453857,0.000969446739,0.00158958472,0.00215791227,0.00262929885
1.3,5.35425893e-05,0.00041619907,0.000971966362,0.00159998367,0.00219020477,0.00268198914
1.35,5.36755042e-05,0.000416908181,0.000974213913,0.00160833607,0.00221863784,0.00273123947
1.4,5.38067478e-05,0.000417586026,0.00097624612,0.00161516697,0.00224315525,0.00277705457
1.45,5.39364695e-05,0.000418236544,0.000978104401,0.00162087281,0.00226381914,0.00281941111
1.5,5.40648011e-05,0.00041886298,0.000979819716,0.00162573819,0.00228090074,0.00285824926
1.55,5.41918603e-05,0.000419468043,0.000981415703,0.00162996462,0.00229487842,0.00289346848
1.6,5.43177538e-05,0.000420054012,0.000982910759,0.00163369552,0.00230632992,0.00292493945
1.65,5.44425794e-05,0.000420622825,0.000984319439,0.00163703453,0.00231580798,0.0029525503
1.7,5.4566429e-05,0.000421176145,0.00098565344,0.00164005789,0.00232377183,0.0029762924
1.75,5.46893907e-05,0.000421715409,0.000986922284,0.00164282277,0.00233057495,0.00299634696
1.8,5.48115512e-05,0.000422241869,0.000988133818,0.00164537284,0.00233648024,0.00301310072
1.85,5.49329982e-05,0.000422756627,0.000989294579,0.00164774202,0.00234168136,0.00302706852
1.9,5.50538226e-05,0.000423260663,0.000990410065,0.0016499571,0.00234632156,0.00303878254
1.95,5.51741208e-05,0.00042375486,0.000991484943,0.00165203951,0.00235050795,0.0030487148
2.0,5.52939975e-05,0.000424240023,0.00099252321,0.00165400666,0.00235432177,0.00305724845
2.05,5.54135677e-05,0.000424716903,0.000993528313,0.00165587282,0.00235782553,0.00306468054
2.1,5.55329596e-05,0.000425186215,0.000994503252,0.00165764986,0.00236106807,0.00307123697
2.15,5.56523166e-05,0.000425648655,0.000995450663,0.00165934769,0.00236408807,0.00307708889
2.2,5.57718002e-05,0.000426104919,0.000996372881,0.00166097473,0.00236691656,0.00308236664
2.25,5.58915921e-05,0.000426555725,0.000997272003,0.00166253814,0.00236957879,0.00308717042
2.3,5.60118973e-05,0.000427001826,0.000998149942,0.00166404406,0.00237209546,0.00309157817
2.35,5.6132946e-05,0.000427444031,0.000999008469,0.00166549783,0.00237448378,0.00309565126
2.4,5.62549963e-05,0.000427883223,0.000999849266,0.00166690412,0.00237675816,0.00309943861
2.45,5.63783366e-05,0.000428320382,0.00100067396,0.00166826704,0.00237893078,0.00310297967
2.5,5.65032881e-05,0.000428756594,0.00100148419,0.00166959025,0.00238101204,0.00310630662
2.55,5.66302071e-05,0.000429193079,0.00100228161,0.00167087706,0.00238301084,0.00310944597
2.6,5.67594873e-05,0.000429631207,0.00100306798,0.00167213052,0.00238493492,0.00311241979
2.65,5.68915621e-05,0.000430072512,0.00100384515,0.00167335348,0.002386791,0.00311524659
2.7,5.70269068e-05,0.000430518716,0.00100461517,0.00167454867,0.00238858503,0.00311794207
2.75,5.7166041e-05,0.000430971743,0.00100538029,0.00167571878,0.00239032227,0.00312051959
2.8,5.73095302e-05,0.000431433741,0.00100614301,0.00167686653,0.0023920075,0.00312299065
2.85,5.74579885e-05,0.000431907093,0.00100690614,0.00167799474,0.00239364508,0.00312536524
2.9,5.761208e-05,0.000432394438,0.00100767281,0.00167910638,0.00239523906,0.00312765204
2.95,5.77725208e-05,0.00043289869,0.00100844656,0.00168020469,0.00239679334,0.00312985872
3.0,5.7940081e-05,0.000433423045,0.00100923133,0.00168129321,0.00239831172,0.0031319921
3.05,5.81155861e-05,0.000433971008,0.00101003155,0.00168237586,0.00239979803,0.00313405834
3.1,5.82999188e-05,0.000434546399,0.00101085215,0.00168345704,0.00240125621,0.00313606307
3.15,5.84940202e-05,0.000435153371,0.00101169861,0.00168454166,0.00240269045,0.00313801156
3.2,5.86988915e-05,0.000435796424,0.00101257698,0.00168563525,0.00240410525,0.00313990882
3.25,5.89155949e-05,0.000436480417,0.00101349396,0.001686744,0.00240550553,0.00314175978
3.3,5.91452547e-05,0.00043721058,0.0010144569,0.00168787485,0.00240689675,0.00314356938
