vds,vb1,vb2,vb3,vb4,vb5,vb6
0.0,-0.0,-0.0,-0.0,-0.0,-0.0,-0.0
0.05,2.49279722e-07,1.01752757e-06,1.69115474e-06,2.25290898e-06,2.7093965e-06,3.07174083e-06
0.1,4.19717435e-07,1.93408506e-06,3.27640101e-06,4.39972387e-06,5.31533264e-06,6.04445433e-06
0.15,5.16073054e-07,2.75235921e-06,4.75835341e-06,6.4428821e-06,7.82001579e-06,8.92009912e-06
0.2,5.53904689e-07,3.47495098e-06,6.13954141e-06,8.38474688e-06,1.02255909e-05,1.17005824e-05
0.25,5.6577836e-07,4.10438655e-06,7.42241275e-06,1.022761e-05,1.25341425e-05,1.43877618e-05
0.3,5.71324615e-07,4.64313621e-06,8.60933674e-06,1.19736942e-05,1.47476972e-05,1.69834467e-05
0.35,5.7503639e-07,5.09365514e-06,9.70260729e-06,1.3625156e-05,1.6868225e-05,1.94893998e-05
0.4,5.7793883e-07,5.45848983e-06,1.07044457e-05,1.51840876e-05,1.88976416e-05,2.19073388e-05
0.45,5.80381387e-07,5.74060603e-06,1.16170033e-05,1.66525192e-05,2.08378102e-05,2.42389376e-05
0.5,5.82523645e-07,5.94450018e-06,1.24423632e-05,1.80324207e-05,2.2690543e-05,2.64858276e-05
0.55,5.84452737e-07,6.07942019e-06,1.31825418e-05,1.93257033e-05,2.44576025e-05,2.86495993e-05
0.6,5.86221952e-07,6.16316229e-06,1.38394886e-05,2.05342205e-05,2.61407033e-05,3.0731803e-05
0.65,5.87866488e-07,6.21664385e-06,1.44150847e-05,2.16597687e-05,2.77415134e-05,3.27339502e-05
0.7,5.89410914e-07,6.25405361e-06,1.49111417e-05,2.27040864e-05,2.92616547e-05,3.46575147e-05
0.75,5.90873106e-07,6.28252446e-06,1.53294218e-05,2.36688515e-05,3.07027042e-05,3.65039336e-05
0.8,5.92266505e-07,6.30553148e-06,1.56717917e-05,2.45556759e-05,3.20661944e-05,3.82746078e-05
0.85,5.93601482e-07,6.32490682e-06,1.59409805e-05,2.53660931e-05,3.33536126e-05,3.99709032e-05
0.9,5.94886217e-07,6.34170805e-06,1.6142922e-05,2.61015352e-05,3.45664006e-05,4.15941512e-05
0.95,5.96127278e-07,6.35659418e-06,1.62895618e-05,2.67632879e-05,3.57059513e-05,4.31456487e-05
1.0,5.97330018e-07,6.3700016e-06,1.63966446e-05,2.7352406e-05,3.67736047e-05,4.46266587e-05
1.05,5.98498867e-07,6.38223351e-06,1.64777495e-05,2.78695696e-05,3.77706384e-05,4.60384096e-05
1.1,5.99637523e-07,6.39350888e-06,1.65419326e-05,2.83149166e-05,3.86982524e-05,4.73820944e-05
1.15,6.00749115e-07,6.40399087e-06,1.6594713e-05,2.86881938e-05,3.95575408e-05,4.86588689e-05
1.2,6.01836309e-07,6.4138043e-06,1.66394623e-05,2.8990282e-05,4.03494415e-05,4.98698483e-05
1.25,6.02901398e-07,6.42304671e-06,1.66783157e-05,2.92266036e-05,4.10746452e-05,5.10161017e-05
1.3,6.0394637e-07,6.43179581e-06,1.67126846e-05,2.94086815e-05,4.17334339e-05,5.2098643e-05
1.35,6.04972961e-07,6.44011448e-06,1.67435404e-05,2.95504214e-05,4.23254182e-05,5.3118415e-05
1.4,6.05982705e-07,6.44805432e-06,1.67715763e-05,2.9663641e-05,4.28492154e-05,5.40762641e-05
1.45,6.06976963e-07,6.45565819e-06,1.6797302e-05,2.97567498e-05,4.33024555e-05,5.49728954e-05
1.5,6.07956962e-07,6.46296208e-06,1.68211022e-05,2.98353695e-05,4.36831911e-05,5.58087969e-05
1.55,6.08923823e-07,6.4699965e-06,1.68432742e-05,2.99032428e-05,4.39933412e-05,5.65841084e-05
1.6,6.09878588e-07,6.47678758e-06,1.68640521e-05,2.99629125e-05,4.42412196e-05,5.72984023e-05
1.65,6.10822247e-07,6.48335781e-06,1.68836231e-05,3.00161544e-05,4.44393739e-05,5.79503501e-05
1.7,6.11755761e-07,6.4897268e-06,1.69021396e-05,3.00642445e-05,4.46002088e-05,5.8537348e-05
1.75,6.12680093e-07,6.49591169e-06,1.6919727e-05,3.01081241e-05,4.47335879e-05,5.90555304e-05
1.8,6.13596229e-07,6.5019277e-06,1.69364895e-05,3.01485043e-05,4.48466305e-05,5.95011724e-05
1.85,6.14505205e-07,6.50778841e-06,1.69525152e-05,3.0185934e-05,4.49443244e-05,5.98739811e-05
1.9,6.15408137e-07,6.51350617e-06,1.69678786e-05,3.02208443e-05,4.5030173e-05,6.0179841e-05
1.95,6.16306239e-07,6.51909234e-06,1.69826437e-05,3.025358e-05,4.51066774e-05,6.0429635e-05
2.0,6.1720086e-07,6.52455761e-06,1.69968656e-05,3.02844206e-05,4.51756609e-05,6.06354359e-05
2.05,6.18093501e-07,6.52991227e-06,1.70105924e-05,3.03135954e-05,4.52384823e-05,6.0807712e-05
2.1,6.18985842e-07,6.5351665e-06,1.70238665e-05,3.03412952e-05,4.52961746e-05,6.09545201e-05
2.15,6.19879771e-07,6.54033062e-06,1.70367251e-05,3.03676799e-05,4.53495388e-05,6.10817686e-05
2.2,6.20777401e-07,6.54541538e-06,1.70492021e-05,3.03928851e-05,4.53992063e-05,6.1193742e-05
2.25,6.21681097e-07,6.55043221e-06,1.70613279e-05,3.04170266e-05,4.54456828e-05,6.12935675e-05
2.3,6.22593497e-07,6.55539354e-06,1.70731311e-05,3.04402044e-05,4.54893788e-05,6.13835613e-05
2.35,6.23517531e-07,6.56031304e-06,1.70846384e-05,3.04625051e-05,4.55306316e-05,6.14654683e-05
2.4,6.24456438e-07,6.56520589e-06,1.70958762e-05,3.04840048e-05,4.55697218e-05,6.15406265e-05
2.45,6.25413786e-07,6.57008907e-06,1.71068704e-05,3.05047706e-05,4.56068848e-05,6.16100789e-05
2.5,6.26393485e-07,6.57498157e-06,1.71176479e-05,3.05248626e-05,4.564232e-05,6.16746517e-05
2.55,6.27399805e-07,6.57990469e-06,1.71282366e-05,3.05443356e-05,4.5676198e-05,6.17350085e-05
2.6,6.28437384e-07,6.58488224e-06,1.71386667e-05,3.05632397e-05,4.57086656e-05,6.17916894e-05
2.65,6.29511242e-07,6.58994075e-06,1.71489713e-05,3.05816225e-05,4.57398503e-05,6.18451392e-05
2.7,6.30626791e-07,6.59510973e-06,1.71591867e-05,3.059953e-05,4.57698638e-05,6.1895728e-05
2.75,6.31789841e-07,6.60042181e-06,1.71693537e-05,3.06170077e-05,4.5798805e-05,6.1943767e-05
2.8,6.33006609e-07,6.60591292e-06,1.71795176e-05,3.06341021e-05,4.58267621e-05,6.198952e-05
2.85,6.34283725e-07,6.61162249e-06,1.71897296e-05,3.06508619e-05,4.58538153e-05,6.20332125e-05
2.9,6.35628235e-07,6.61759354e-06,1.72000469e-05,3.06673392e-05,4.58800386e-05,6.2075039e-05
2.95,6.37047604e-07,6.62387284e-06,1.72105333e-05,3.06835908e-05,4.59055017e-05,6.21151683e-05
3.0,6.38549722e-07,6.63051103e-06,1.72212601e-05,3.06996796e-05,4.5930272e-05,6.21537485e-05
3.05,6.40142899e-07,6.63756268e-06,1.72323064e-05,3.07156757e-05,4.59544166e-05,6.21909103e-05
3.1,6.41835871e-07,6.64508639e-06,1.72437595e-05,3.07316574e-05,4.59780037e-05,6.2226771e-05
3.15,6.43637793e-07,6.65314486e-06,1.72557156e-05,3.0747713e-05,4.60011051e-05,6.22614368e-05
3.2,6.45558243e-07,6.66180493e-06,1.72682798e-05,3.07639411e-05,4.60237975e-05,6.22950057e-05
3.25,6.47607215e-07,6.67113764e-06,1.7281567e-05,3.07804526e-05,4.60461649e-05,6.23275705e-05
3.3,6.49795118e-07,6.68121821e-06,1.72957016e-05,3.07973707e-05,4.60683e-05,6.23592207e-05
