vds,vb1,vb2,vb3,vb4,vb5,vb6
0.0,-0.0,-0.0,-0.0,-0.0,-0.0,-0.0
0.05,2.86871541e-06,1.25625896e-05,1.95579975e-05,2.45931429e-05,2.83152342e-05,3.11223537e-05
0.1,4.74659165e-06,2.36100955e-05,3.75247901e-05,4.76273188e-05,5.51439271e-05,6.08443848e-05
0.15,5.81969277e-06,3.32455648e-05,5.39915405e-05,6.91799242e-05,8.05510572e-05,8.92206461e-05
0.2,6.37975937e-06,4.15628702e-05,6.90422975e-05,8.93231726e-05,0.000104597796,0.000116302851
0.25,6.7065484e-06,4.86477722e-05,8.27545048e-05,0.000108124456,0.000127341753,0.000142140045
0.3,6.94212388e-06,5.45792739e-05,9.51993581e-05,0.000125646645,0.000148837198,0.000166778754
0.35,7.13848292e-06,5.94325693e-05,0.000106441966,0.000141948319,0.00016913524,0.000190263128
0.4,7.31514694e-06,6.32873905e-05,0.000116541241,0.000157083907,0.000188283989,0.000212635056
0.45,7.48062087e-06,6.62476097e-05,0.00012554942,0.000171103719,0.000206328658,0.000233934272
0.5,7.63917806e-06,6.84646306e-05,0.000133511209,0.000184053811,0.000223311634,0.000254198433
0.55,7.79321972e-06,7.01279618e-05,0.000140462945,0.000195975614,0.000239272467,0.000273463183
0.6,7.94421441e-06,7.141552e-05,0.000146433738,0.000206905215,0.000254247779,0.000291762176
0.65,8.09312036e-06,7.24579465e-05,0.000151453485,0.000216872181,0.000268271033,0.000309127069
0.7,8.24059511e-06,7.33391393e-05,0.000155573119,0.000225897899,0.000281372112,0.000325587454
0.75,8.38710822e-06,7.41108475e-05,0.000158888782,0.000233993905,0.000293576613,0.000341170721
0.8,8.53300604e-06,7.48053327e-05,0.000161542293,0.000241162006,0.000304904764,0.000355901808
0.85,8.67855092e-06,7.5443343e-05,0.000163689368,0.000247400436,0.000315369856,0.000369802801
0.9,8.82394601e-06,7.60387152e-05,0.000165465788,0.000252720816,0.000324976312,0.000382892305
0.95,8.9693516e-06,7.66010069e-05,0.000166974311,0.000257172247,0.000333718049,0.000395184518
1.0,9.1148962e-06,7.71370344e-05,0.00016828757,0.000260853397,0.000341579142,0.000406687901
1.05,9.26068428e-06,7.76517976e-05,0.000169455827,0.000263897198,0.000348540538,0.000417403454
1.1,9.40680176e-06,7.81490557e-05,0.000170514004,0.000266440471,0.000354596171,0.000427322841
1.15,9.55332008e-06,7.86316966e-05,0.000171486749,0.000268601479,0.00035977451,0.000436427275
1.2,9.70029919e-06,7.9101981e-05,0.000172391817,0.000270472623,0.000364150738,0.00044468929
1.25,9.84778982e-06,7.95617082e-05,0.000173242274,0.000272122612,0.000367837319,0.000452080593
1.3,9.99583524e-06,8.00123313e-05,0.000174047935,0.000273601647,0.000370959784,0.000458587703
1.35,1.01444727e-05,8.04550391e-05,0.000174816315,0.000274946418,0.000373634898,0.000464230571
1.4,1.02937345e-05,8.08908158e-05,0.000175553268,0.000276183998,0.000375959918,0.000469072156
1.45,1.0443649e-05,8.13204842e-05,0.000176263431,0.000277334648,0.000378011074,0.000473210596
1.5,1.05942415e-05,8.17447391e-05,0.000176950524,0.000278413761,0.000379846428,0.00047675939
1.55,1.07455346e-05,8.21641722e-05,0.000177617575,0.000279433219,0.000381509812,0.000479828352
1.6,1.08975497e-05,8.25792916e-05,0.000178267075,0.000280402331,0.000383034381,0.000482512693
1.65,1.10503069e-05,8.29905372e-05,0.000178901095,0.000281328491,0.000384445426,0.000484889857
1.7,1.1203826e-05,8.33982933e-05,0.000179521374,0.000282217653,0.000385762449,0.000487020762
1.75,1.13581275e-05,8.38028984e-05,0.000180129386,0.000283074664,0.000387000677,0.000488952653
1.8,1.1513233e-05,8.42046544e-05,0.00018072639,0.000283903518,0.000388172146,0.000490722071
1.85,1.1669166e-05,8.46038341e-05,0.000181313469,0.000284707537,0.00038928649,0.000492357394
1.9,1.18259531e-05,8.5000688e-05,0.000181891565,0.000285489509,0.000390351504,0.000493880834
1.95,1.19836244e-05,8.53954511e-05,0.000182461499,0.000286251797,0.000391373568,0.000495309942
2.0,1.2142215e-05,8.57883483e-05,0.000183024002,0.000286996416,0.000392357957,0.000496658733
2.05,1.23017655e-05,8.61796015e-05,0.000183579724,0.000287725101,0.00039330907,0.000497938512
2.1,1.24623235e-05,8.65694346e-05,0.000184129256,0.000288439357,0.000394230609,0.000499158494
2.15,1.26239444e-05,8.69580798e-05,0.000184673143,0.000289140499,0.000395125718,0.000500326263
2.2,1.27866926e-05,8.73457838e-05,0.000185211899,0.000289829688,0.000395997083,0.000501448116
2.25,1.29506431e-05,8.77328136e-05,0.000185746019,0.00029050796,0.000396847018,0.000502529331
2.3,1.31158823e-05,8.81194628e-05,0.000186275994,0.000291176254,0.000397677535,0.000503574364
2.35,1.32825094e-05,8.85060578e-05,0.000186802319,0.000291835433,0.000398490391,0.000504587009
2.4,1.34506382e-05,8.8892964e-05,0.000187325513,0.000292486307,0.000399287143,0.000505570518
2.45,1.3620398e-05,8.92805923e-05,0.000187846126,0.000293129653,0.00040006918,0.000506527699
2.5,1.37919355e-05,8.96694056e-05,0.000188364753,0.000293766238,0.000400837762,0.000507460999
2.55,1.39654161e-05,9.0059925e-05,0.000188882049,0.000294396835,0.00040159405,0.000508372561
2.6,1.41410256e-05,9.04527367e-05,0.000189398739,0.000295022248,0.000402339135,0.000509264286
2.65,1.43189718e-05,9.08484986e-05,0.000189915635,0.000295643325,0.000403074068,0.000510137879
2.7,1.44994862e-05,9.12479466e-05,0.000190433644,0.000296260985,0.000403799885,0.000510994887
2.75,1.46828257e-05,9.16519016e-05,0.000190953784,0.000296876232,0.000404517637,0.000511836745
2.8,1.48692745e-05,9.20612762e-05,0.000191477197,0.000297490179,0.000405228415,0.000512664807
2.85,1.50591457e-05,9.24770813e-05,0.000192005162,0.000298104067,0.000405933376,0.000513480381
2.9,1.52527833e-05,9.29004332e-05,0.000192539107,0.000298719283,0.000406633773,0.000514284767
2.95,1.54505639e-05,9.33325599e-05,0.000193080623,0.000299337383,0.000407330979,0.00051507929
3.0,1.56528987e-05,9.37748081e-05,0.000193631477,0.000299960109,0.000408026516,0.000515865331
3.05,1.58602356e-05,9.42286501e-05,0.000194193624,0.000300589411,0.000408722081,0.000516644362
3.1,1.60730606e-05,9.46956901e-05,0.000194769222,0.000301227466,0.000409419572,0.000517417983
3.15,1.62919002e-05,9.51776711e-05,0.000195360642,0.000301876698,0.000410121119,0.000518187952
3.2,1.65173231e-05,9.56764813e-05,0.000195970482,0.000302539797,0.000410829105,0.00051895622
3.25,1.67499421e-05,9.61941604e-05,0.000196601581,0.000303219739,0.000411546198,0.000519724967
3.3,1.6990416e-05,9.67329059e-05,0.000197257029,0.000303919805,0.000412275375,0.000520496633
