vds,vb1,vb2,vb3,vb4,vb5,vb6
0.0,-0.0,-0.0,-0.0,-0.0,-0.0,-0.0
0.05,3.26854387e-05,0.000135353023,0.000206878816,0.000256012036,0.000290322797,0.000314488716
0.1,5.42115239e-05,0.00025381897,0.000396233473,0.000495161391,0.00056489275,0.000614453031
0.15,6.66151951e-05,0.000356650425,0.000569153132,0.000718346164,0.00082443926,0.000900484516
0.2,7.30540473e-05,0.000444966843,0.000726631939,0.000926398895,0.001069646,0.00117314234
0.25,7.66993291e-05,0.000519764464,0.000869575421,0.00112009118,0.00130115395,0.00143295524
0.3,7.92454327e-05,0.000581927242,0.000998804209,0.00130013733,0.00151956401,0.00168042329
0.35,8.1327253e-05,0.000632260095,0.00111505425,0.00146719689,0.00172543921,0.00191601949
0.4,8.31820145e-05,0.000671610431,0.00121897222,0.00162187577,0.00191930632,0.00214019104
0.45,8.49111562e-05,0.000701165842,0.00131110489,0.0017647255,0.00210165693,0.00235336047
0.5,8.65644798e-05,0.000722755424,0.00139188375,0.00189623974,0.00227294781,0.00255592647
0.55,8.81693211e-05,0.000738615365,0.00146161708,0.00201684708,0.00243360013,0.00274826433
0.6,8.97420348e-05,0.000750721553,0.00152053254,0.00212689843,0.00258399736,0.00293072603
0.65,9.12930809e-05,0.000760444954,0.00156895285,0.0022266484,0.00272448112,0.00310363971
0.7,9.28295092e-05,0.000768632116,0.00160762449,0.0023162329,0.00285534407,0.00326730841
0.75,9.43562746e-05,0.000775792244,0.00163794168,0.00239565746,0.0029768188,0.0034220077
0.8,9.587698e-05,0.000782237406,0.0016617269,0.00246483562,0.00308906161,0.00356798181
0.85,9.73943197e-05,0.000788165706,0.00168074356,0.00252374232,0.0031921313,0.00370543758
0.9,9.89103565e-05,0.000793707825,0.00169638613,0.00257269793,0.00328596777,0.00383453543
0.95,0.000100426701,0.000798953168,0.00170964384,0.0026126134,0.00337038713,0.0039553764
1.0,0.000101944633,0.000803964935,0.00172118873,0.00264493121,0.00344512995,0.00406798481
1.05,0.000103465184,0.000808789111,0.00173147484,0.00267127637,0.00351001043,0.00417228786
1.1,0.000104989194,0.000813460005,0.00174081293,0.00269311582,0.00356516275,0.00426809893
1.15,0.00010651736,0.000818003791,0.00174942016,0.00271160891,0.00361124912,0.00435512188
1.2,0.000108050258,0.000822440819,0.0017574518,0.00272761087,0.00364943924,0.00443300845
1.25,0.000109588376,0.000826787188,0.00176502144,0.00274173535,0.00368115496,0.00450150056
1.3,0.000111132127,0.000831055823,0.001772214,0.00275442088,0.0037077773,0.00456064056
1.35,0.000112681863,0.000835257238,0.0017790942,0.0027659835,0.00373047467,0.00461093887
1.4,0.000114237889,0.000839400093,0.00178571224,0.00277665428,0.00375016102,0.00465336395
1.45,0.000115800469,0.000843491596,0.00179210773,0.00278660497,0.00376752412,0.00468914882
1.5,0.000117369838,0.000847537801,0.00179831236,0.00279596546,0.00378307422,0.00471955001
1.55,0.000118946207,0.000851543846,0.00180435178,0.0028048356,0.00379718993,0.00474568319
1.6,0.000120529769,0.000855514123,0.00181024707,0.00281329333,0.00381015436,0.00476846074
1.65,0.00012212071,0.00085945242,0.00181601568,0.0028214004,0.00382218169,0.00478859606
1.7,0.000123719211,0.000863362037,0.0018216722,0.00282920637,0.0038334361,0.00480663546
1.75,0.000125325457,0.000867245871,0.00182722899,0.00283675149,0.00384404517,0.00482299488
1.8,0.000126939645,0.000871106503,0.00183269655,0.00284406885,0.00385410939,0.00483799187
1.85,0.000128561992,0.00087494626,0.00183808391,0.00285118588,0.00386370887,0.00485187065
1.9,0.000130192744,0.000878767282,0.00184339889,0.00285812556,0.00387290829,0.00486482102
1.95,0.000131832182,0.00088257158,0.00184864832,0.00286490731,0.00388176042,0.00487699204
2.0,0.000133480636,0.000886361091,0.00185383824,0.00287154769,0.00389030876,0.00488850217
2.05,0.000135138492,0.000890137735,0.00185897406,0.0028780609,0.00389858952,0.00489944657
2.1,0.000136806205,0.000893903468,0.00186406069,0.00288445923,0.00390663312,0.00490990249
2.15,0.000138484311,0.000897660345,0.00186910269,0.00289075344,0.00391446529,0.00491993332
2.2,0.000140173437,0.00090141057,0.00187410437,0.00289695302,0.00392210801,0.00492959152
2.25,0.000141874317,0.000905156558,0.00187906994,0.00290306645,0.00392958016,0.00493892092
2.3,0.000143587803,0.000908900997,0.00188400361,0.00290910143,0.00393689813,0.00494795843
2.35,0.000145314882,0.000912646906,0.00188890971,0.00291506509,0.00394407625,0.00495673538
2.4,0.000147056688,0.000916397703,0.00189379282,0.00292096417,0.00395112719,0.00496527858
2.45,0.000148814518,0.000920157265,0.00189865786,0.00292680522,0.0039580623,0.00497361113
2.5,0.000150589853,0.000923929995,0.00190351026,0.00293259477,0.00396489189,0.00498175309
2.55,0.000152384367,0.00092772089,0.00190835605,0.00293833954,0.00397162551,0.00498972205
2.6,0.00015419995,0.00093153561,0.00191320199,0.00294404658,0.00397827224,0.0049975336
2.65,0.000156038725,0.000935380544,0.00191805573,0.0029497235,0.00398484089,0.00500520171
2.7,0.000157903062,0.000939262882,0.00192292588,0.00295537862,0.00399134029,0.00501273913
2.75,0.000159795603,0.000943190687,0.00192782221,0.00296102121,0.00399777953,0.00502015771
2.8,0.000161719278,0.000947172962,0.00193275573,0.00296666163,0.00400416817,0.00502746871
2.85,0.000163677325,0.000951219728,0.00193773886,0.00297231154,0.00401051654,0.00503468315
2.9,0.000165673309,0.000955342088,0.00194278554,0.00297798415,0.00401683596,0.00504181207
2.95,0.000167711144,0.000959552306,0.00194791138,0.00298369433,0.00402313903,0.00504886688
3.0,0.000169795111,0.000963863878,0.00195313377,0.00298945889,0.00402943986,0.00505585965
3.05,0.000171929883,0.000968291599,0.00195847208,0.00299529673,0.00403575433,0.00506280343
3.1,0.000174120539,0.000972851639,0.00196394772,0.00300122908,0.00404210038,0.00506971255
3.15,0.00017637259,0.00097756161,0.00196958431,0.00300727967,0.00404849828,0.00507660298
3.2,0.000178691997,0.000982440636,0.00197540781,0.00301347496,0.00405497086,0.00508349261
3.25,0.000181085192,0.000987509421,0.00198144667,0.00301984431,0.00406154383,0.00509040161
3.3,0.0001835591,0.000992790312,0.00198773191,0.00302642023,0.00406824601,0.00509735277
