vds,vb1,vb2,vb3,vb4,vb5,vb6
0.0,-0.0,-0.0,-0.0,-0.0,-0.0,-0.0
0.05,6.53335967e-07,3.54028428e-06,5.9204987e-06,7.79411706e-06,9.26872673e-06,1.04291202e-05
0.1,1.0507783e-06,6.69355723e-06,1.142807e-05,1.51731148e-05,1.81317866e-05,2.04682049e-05
0.15,1.23764717e-06,9.47537813e-06,1.65373379e-05,2.21501958e-05,2.66008516e-05,3.01274622e-05
0.2,1.3070883e-06,1.19005956e-05,2.12622443e-05,2.87380061e-05,3.46871481e-05,3.94167456e-05
0.25,1.33804107e-06,1.3983489e-05,2.56160874e-05,3.49486624e-05,4.24014774e-05,4.83455692e-05
0.3,1.35745632e-06,1.57380185e-05,2.96115561e-05,4.07937782e-05,4.97542348e-05,5.69231217e-05
0.35,1.37223237e-06,1.71783709e-05,3.32607605e-05,4.62844861e-05,5.6755427e-05,6.51582794e-05
0.4,1.38458094e-06,1.83203343e-05,3.65752567e-05,5.1431458e-05,6.34146884e-05,7.30596188e-05
0.45,1.39543237e-06,1.91848617e-05,3.95660652e-05,5.62449216e-05,6.97412954e-05,8.06354279e-05
0.5,1.40526186e-06,1.9805511e-05,4.22436778e-05,6.07346725e-05,7.57441797e-05,8.78937169e-05
0.55,1.41434596e-06,2.0234861e-05,4.46180537e-05,6.49100794e-05,8.14319389e-05,9.48422278e-05
0.6,1.42286076e-06,2.05344619e-05,4.66986106e-05,6.87800794e-05,8.68128442e-05,0.000101488443
0.65,1.43092584e-06,2.07539938e-05,4.84942819e-05,7.23531568e-05,9.18948453e-05,0.000107839593
0.7,1.43862641e-06,2.09244248e-05,5.00139332e-05,7.56372955e-05,9.66855693e-05,0.000113902661
0.75,1.44602546e-06,2.10633431e-05,5.12680677e-05,7.86398871e-05,0.000101192312,0.000119684389
0.8,1.45317097e-06,2.11808523e-05,5.22734111e-05,8.13675672e-05,0.000105422019,0.000125191275
0.85,1.46010037e-06,2.12830494e-05,5.30593954e-05,8.38259484e-05,0.000109381244,0.000130429574
0.9,1.46684342e-06,2.13738207e-05,5.36685347e-05,8.60192537e-05,0.000113076082,0.000135405287
0.95,1.47342424e-06,2.14557687e-05,5.41462581e-05,8.7950047e-05,0.00011651205,0.000140124149
1.0,1.47986259e-06,2.15307111e-05,5.4530351e-05,8.96198541e-05,0.000119693891,0.000144591592
1.05,1.48617494e-06,2.15999635e-05,5.48479512e-05,9.10323814e-05,0.000122625261,0.000148812706
1.1,1.4923751e-06,2.16645064e-05,5.51174344e-05,9.22001818e-05,0.000125308251,0.000152792155
1.15,1.49847481e-06,2.17250894e-05,5.5351153e-05,9.31502028e-05,0.000127742789,0.000156534056
1.2,1.50448411e-06,2.17822975e-05,5.55575487e-05,9.39207995e-05,0.000129926217,0.000160041775
1.25,1.51041168e-06,2.18365962e-05,5.57425369e-05,9.45520282e-05,0.000131854031,0.000163317624
1.3,1.51626506e-06,2.18883615e-05,5.59103753e-05,9.50780375e-05,0.000133523467,0.000166362391
1.35,1.52205087e-06,2.19379012e-05,5.60642071e-05,9.55248711e-05,0.000134940335,0.000169174716
1.4,1.52777497e-06,2.19854708e-05,5.62064076e-05,9.59114557e-05,0.000136124763,0.000171750415
1.45,1.53344258e-06,2.20312844e-05,5.63388089e-05,9.62513857e-05,0.000137109601,0.000174082312
1.5,1.53905843e-06,2.20755233e-05,5.64628505e-05,9.65544915e-05,0.000137932413,0.000176161741
1.55,1.54462682e-06,2.21183422e-05,5.65796821e-05,9.68279895e-05,0.000138627863,0.000177983106
1.6,1.55015179e-06,2.21598745e-05,5.66902353e-05,9.70772733e-05,0.000139224257,0.000179550679
1.65,1.55563715e-06,2.22002358e-05,5.67952744e-05,9.73064491e-05,0.000139743336,0.000180882966
1.7,1.56108659e-06,2.22395272e-05,5.68954343e-05,9.75186982e-05,0.000140201396,0.000182010298
1.75,1.56650378e-06,2.2277838e-05,5.69912473e-05,9.77165262e-05,0.000140610611,0.000182967636
1.8,1.57189246e-06,2.23152477e-05,5.70831642e-05,9.79019358e-05,0.00014098014,0.000183788014
1.85,1.57725648e-06,2.23518276e-05,5.71715699e-05,9.80765499e-05,0.000141316954,0.000184499282
1.9,1.58259996e-06,2.23876429e-05,5.72567959e-05,9.82416997e-05,0.000141626441,0.000185123558
1.95,1.58792731e-06,2.24227538e-05,5.73391296e-05,9.83984891e-05,0.000141912817,0.000185677936
2.0,1.59324334e-06,2.24572173e-05,5.74188225e-05,9.85478432e-05,0.000142179435,0.000186175529
2.05,1.59855337e-06,2.24910881e-05,5.74960962e-05,9.8690544e-05,0.00014242899,0.000186626425
2.1,1.60386324e-06,2.25244199e-05,5.7571148e-05,9.88272584e-05,0.000142663681,0.000187038446
2.15,1.60917948e-06,2.2557267e-05,5.76441553e-05,9.89585596e-05,0.000142885318,0.000187417729
2.2,1.61450933e-06,2.25896852e-05,5.771528e-05,9.9084944e-05,0.000143095406,0.000187769141
2.25,1.61986082e-06,2.26217332e-05,5.77846721e-05,9.92068447e-05,0.000143295214,0.000188096589
2.3,1.62524289e-06,2.26534734e-05,5.78524732e-05,9.93246428e-05,0.000143485813,0.000188403248
2.35,1.63066541e-06,2.26849736e-05,5.79188196e-05,9.94386768e-05,0.00014366812,0.000188691721
2.4,1.6361393e-06,2.27163077e-05,5.79838462e-05,9.95492502e-05,0.000143842925,0.00018896417
2.45,1.64167657e-06,2.27475569e-05,5.80476886e-05,9.96566392e-05,0.000144010912,0.000189222401
2.5,1.6472904e-06,2.27788111e-05,5.81104874e-05,9.97610985e-05,0.00014417268,0.000189467943
2.55,1.6529952e-06,2.28101693e-05,5.81723901e-05,9.98628677e-05,0.000144328757,0.000189702092
2.6,1.65880671e-06,2.28417413e-05,5.82335547e-05,9.99621769e-05,0.00014447961,0.000189925965
2.65,1.66474201e-06,2.28736482e-05,5.82941525e-05,0.000100059252,0.000144625662,0.000190140523
2.7,1.67081962e-06,2.29060234e-05,5.8354371e-05,0.000100154321,0.000144767297,0.000190346605
2.75,1.67705954e-06,2.29390139e-05,5.84144165e-05,0.000100247616,0.000144904871,0.000190544944
2.8,1.68348334e-06,2.29727805e-05,5.84745168e-05,0.000100339385,0.000145038719,0.000190736191
2.85,1.69011416e-06,2.30074995e-05,5.85349242e-05,0.000100429889,0.000145169166,0.000190920925
2.9,1.69697682e-06,2.30433625e-05,5.85959175e-05,0.000100519412,0.00014529653,0.000191099671
2.95,1.70409783e-06,2.3080578e-05,5.86578049e-05,0.000100608266,0.000145421135,0.000191272908
3.0,1.71150546e-06,2.31193719e-05,5.8720926e-05,0.000100696793,0.000145543315,0.000191441084
3.05,1.71922977e-06,2.31599878e-05,5.87856544e-05,0.000100785371,0.000145663422,0.000191604626
3.1,1.72730267e-06,2.32026884e-05,5.88523994e-05,0.000100874419,0.000145781833,0.000191763947
3.15,1.73575795e-06,2.32477553e-05,5.89216088e-05,0.000100964402,0.000145898961,0.00019191946
3.2,1.74463131e-06,2.32954903e-05,5.899377e-05,0.000101055832,0.000146015253,0.000192071587
3.25,1.75396038e-06,2.33462156e-05,5.90694127e-05,0.000101149276,0.000146131209,0.000192220767
3.3,1.76378481e-06,2.34002744e-05,5.91491101e-05,0.000101245356,0.000146247377,0.000192367466
