vds,vb1,vb2,vb3,vb4,vb5,vb6
0.0,35412.2744,11976.0612,8161.2575,6623.34459,5810.38138,5320.08079
0.05,39635.0288,12398.9525,8333.26011,6722.73826,5877.6005,5369.69448
0.1,44966.0908,12850.1286,8511.6987,6824.66013,5946.08998,5420.04077
0.15,51905.8845,13332.5222,8696.9405,6929.20748,6015.88595,5471.13586
0.2,61306.4826,13849.486,8889.38121,7036.48269,6087.02595,5522.99645
0.25,74738.7775,14404.8704,9089.44783,7146.59348,6159.54892,5575.63975
0.3,95412.2646,15003.1193,9297.60183,7259.65336,6233.49538,5629.08345
0.35,130769.33,15649.3893,9514.34266,7375.78196,6308.90739,5683.34583
0.4,199982.516,16349.698,9740.21176,7495.10548,6385.82873,5738.44568
0.45,343205.366,17111.112,9975.7971,7617.75714,6464.30492,5794.40242
0.5,560556.3,17941.9846,10221.7382,7743.87766,6544.38333,5851.23602
0.55,761197.551,18852.2635,10478.7321,7873.61583,6626.11329,5908.96713
0.6,920825.774,19853.8883,10747.5396,8007.12906,6709.54616,5967.61702
0.65,1058815.14,20961.3148,11028.9932,8144.58403,6794.73546,6027.20765
0.7,1187283.7,22192.2126,11324.0054,8286.15738,6881.73697,6087.76168
0.75,1311333.97,23568.4068,11633.5787,8432.03647,6970.60888,6149.30252
0.8,1433136.32,25117.169,11958.8169,8582.42022,7061.41188,6211.85431
0.85,1553691.02,26873.0159,12300.9382,8737.51996,7154.20931,6275.44202
0.9,1673499.42,28880.2588,12661.2906,8897.5605,7249.06734,6340.09145
0.95,1792832.13,31196.6848,13041.3696,9062.78115,7346.05506,6405.82923
1.0,1911844.63,33898.9675,13442.8388,9233.43692,7445.24473,6472.68291
1.05,2030631.09,37090.7474,13867.5543,9409.79986,7546.71189,6540.681
1.1,2149251.16,40914.7882,14317.5934,9592.16052,7650.53559,6609.85295
1.15,2267744.04,45570.988,14795.2887,9780.82947,7756.79856,6680.22926
1.2,2386136.35,51340.917,15303.2685,9976.13914,7865.58748,6751.84147
1.25,2504446.69,58611.1247,15844.5052,10178.4458,7976.99317,6824.72226
1.3,2622688.35,67853.7459,16422.3738,10388.1315,8091.11087,6898.90546
1.35,2740871.07,79450.5564,17040.7226,10605.6069,8208.0405,6974.4261
1.4,2859002.08,93304.1942,17703.9595,10831.3136,8327.88694,7051.32052
1.45,2977086.86,108695.112,18417.1578,11065.7273,8450.76037,7129.62633
1.5,3095129.62,124807.705,19186.1883,11309.361,8576.77659,7209.38259
1.55,3213133.64,141174.668,20017.8832,11562.769,8706.0574,7290.62976
1.6,3331101.5,157617.265,20920.2445,11826.551,8838.73094,7373.40986
1.65,3449035.26,174079.621,21902.7102,12101.357,8974.93222,7457.76649
1.7,3566936.58,190545.788,22976.5008,12387.8922,9114.80345,7543.74491
1.75,3684806.8,207011.569,24155.0776,12686.9239,9258.49463,7631.39215
1.8,3802647.0,223476.081,25454.7636,12999.2879,9406.16408,7720.75707
1.85,3920458.11,239939.309,26895.6096,13325.8964,9557.97896,7811.89046
1.9,4038240.87,256401.419,28502.6471,13667.7475,9714.11597,7904.84513
1.95,4155995.91,272862.563,30307.7766,14025.9353,9874.76203,7999.67601
2.0,4273723.74,289322.855,32352.7319,14401.6619,10040.115,8096.44029
2.05,4391424.82,305782.363,34693.8053,14796.2518,10210.3845,8195.19748
2.1,4509099.52,322241.125,37408.8942,15211.168,10385.7928,8296.00958
2.15,4626748.16,338699.159,40604.9506,15648.0314,10566.576,8398.94119
2.2,4744371.01,355156.466,44414.4716,16108.6437,10752.9848,8504.05965
2.25,4861968.3,371613.04,48956.3716,16595.0152,10945.2857,8611.43518
2.3,4979540.24,388068.869,54259.4221,17109.3979,11143.7625,8721.14106
2.35,5097087.01,404523.938,60222.4925,17654.3276,11348.7178,8833.25377
2.4,5214608.74,420978.231,66670.3335,18232.6759,11560.4742,8947.8532
2.45,5332105.57,437431.728,73437.0432,18847.7184,11779.3764,9065.02279
2.5,5449577.62,453884.415,80403.2528,19503.226,12005.793,9184.84982
2.55,5567024.97,470336.272,87493.407,20203.5908,12240.1186,9307.42553
2.6,5684447.73,486787.284,94661.8682,20954.01,12482.7766,9432.84543
2.65,5801845.95,503237.435,101881.17,21760.7644,12734.2214,9561.20951
2.7,5919219.72,519686.711,109134.497,22631.6623,12994.9421,9692.62255
2.75,6036569.08,536135.097,116411.281,23576.7762,13265.4653,9827.19436
2.8,6153894.08,552582.58,123704.688,24609.7001,13546.36,9965.04014
2.85,6271194.78,569029.148,131010.17,25749.7079,13838.2416,10106.2808
2.9,6388471.2,585474.789,138324.617,27025.3141,14141.7777,10251.0433
2.95,6505723.38,601919.492,145645.851,28479.4278,14457.6944,10399.4611
3.0,6622951.35,618363.247,152972.307,30174.3896,14786.7843,10551.6745
3.05,6740155.13,634806.044,160302.842,32190.3118,15129.9157,10707.8313
3.1,6857334.76,651247.874,167636.602,34605.9707,15488.0449,10868.0871
3.15,6974490.24,667688.729,174972.937,37462.5573,15862.2311,11032.6058
3.2,7091621.59,684128.601,182311.349,40737.9915,16253.6567,11201.5606
3.25,7208728.84,700567.482,189651.446,44358.9343,16663.6545,11375.1342
3.3,7325811.98,717005.365,196992.92,48236.2277,17093.7461,11553.5198
3.35,7442871.04,733442.243,204335.522,52292.052,17545.6974,11736.922
3.4,7559906.02,749878.11,211679.052,56468.8302,18021.6019,11925.5574
3.45,7676916.92,766312.96,219023.344,60727.2725,18524.0096,12119.6559
3.5,7793903.77,782746.787,226368.263,65041.4348,19056.1323,12319.4617
3.55,7910866.55,799179.585,233713.695,69394.2881,19622.1771,12525.235
3.6,8027805.28,815611.351,241059.547,73774.5603,20227.8979,12737.253
3.65,8144719.96,832042.078,248405.736,78174.6725,20881.5063,12955.8119
3.7,8261610.6,848471.762,255752.196,82589.4325,21595.1467,13181.2295
3.75,8378477.18,864900.399,263098.867,87015.2125,22387.143,13413.8471
3.8,8495319.73,881327.985,270445.698,91449.4276,23284.9568,13654.033
3.85,8612138.23,897754.515,277792.646,95890.2019,24327.8142,13902.1864
3.9,8728932.68,914179.985,285139.672,100336.15,25565.9489,14158.7428
3.95,8845703.1,930604.393,292486.744,104786.23,27051.8784,14424.1799
4.0,8962449.47,947027.735,299833.83,109239.651,28822.8767,14699.0274
4.05,9079171.79,963450.006,307180.906,113695.798,30884.2375,14983.8782
4.1,9195870.07,979871.205,314527.949,118154.193,33207.227,15279.4062
4.15,9312544.31,996291.327,321874.937,122614.456,35742.8769,15586.3903
4.2,9429194.5,1012710.37,329221.852,127076.28,38439.219,15905.7505
4.25,9545820.63,1029128.33,336568.678,131539.422,41251.872,16238.6013
4.3,9662422.72,1045545.21,343915.4,136003.678,44147.11,16586.3343
4.35,9779000.75,1061961.0,351262.004,140468.884,47100.8149,16950.7448
4.4,9895554.73,1078375.7,358608.478,144934.902,50096.2049,17334.2326
4.45,10012084.6,1094789.31,365954.81,149401.616,53121.6905,17740.1184
4.5,10128590.5,1111201.82,373300.992,153868.93,56169.2368,18173.1444
4.55,10245072.3,1127613.24,380647.014,158336.762,59233.2162,18640.2506
4.6,10361530.0,1144023.56,387992.866,162805.04,62309.6337,19151.7286
4.65,10477963.7,1160432.77,395338.542,167273.705,65395.6111,19722.78
4.7,10594373.3,1176840.89,402684.034,171742.704,68489.0427,20375.2191
4.75,10710758.8,1193247.9,410029.336,176211.993,71588.3649,21138.384
4.8,10827120.2,1209653.8,417374.442,180681.532,74692.4001,22047.3823
4.85,10943457.6,1226058.6,424719.345,185151.287,77800.2489,23136.723
4.9,11059770.9,1242462.28,432064.041,189621.227,80911.2157,24430.0469
4.95,11176060.1,1258864.85,439408.525,194091.325,84024.7559,25931.3354
5.0,11292325.2,1275266.31,446752.792,198561.558,87140.4387,27623.9
5.05,11408566.2,1291666.65,454096.839,203031.904,90257.9193,29477.5243
5.1,11524783.1,1308065.88,461440.66,207502.345,93376.9193,31458.1141
5.15,11640975.9,1324463.99,468784.253,211972.865,96497.2118,33534.6131
5.2,11757144.7,1340860.97,476127.613,216443.447,99618.6102,35681.9176
5.25,11873289.3,1357256.84,483470.739,220914.078,102740.96,37881.0582
5.3,11989409.8,1373651.58,490813.626,225384.745,105864.133,40118.1998
5.35,12105506.2,1390045.2,498156.272,229855.439,108988.019,42383.4067
5.4,12221578.5,1406437.7,505498.673,234326.148,112112.529,44669.5661
5.45,12337626.7,1422829.06,512840.829,238796.862,115237.583,46971.5645
5.5,12453650.8,1439219.3,520182.735,243267.575,118363.115,49285.6941
5.55,12569650.8,1455608.41,527524.39,247738.277,121489.067,51609.2369
5.6,12685626.6,1471996.39,534865.792,252208.963,124615.391,53940.1766
5.65,12801578.4,1488383.24,542206.939,256679.624,127742.042,56276.999
5.7,12917506.0,1504768.96,549547.828,261150.256,130868.983,58618.5525
5.75,13033409.5,1521153.54,556888.458,265620.853,133996.182,60963.9512
5.8,13149288.8,1537536.99,564228.826,270091.41,137123.609,63312.5058
5.85,13265144.0,1553919.31,571568.933,274561.921,140251.239,65663.6738
5.9,13380975.1,1570300.48,578908.775,279032.384,143379.048,68017.0241
5.95,13496782.1,1586680.52,586248.351,283502.792,146507.017,70372.2108
6.0,13612564.9,1603059.42,593587.66,287973.143,149635.128,72728.9538
6.05,13728323.6,1619437.18,600926.7,292443.434,152763.364,75087.0244
6.1,13844058.2,1635813.8,608265.47,296913.66,155891.711,77446.2341
6.15,13959768.6,1652189.28,615603.969,301383.819,159020.155,79806.4269
6.2,14075454.8,1668563.62,622942.196,305853.908,162148.686,82167.4724
6.25,14191117.0,1684936.81,630280.149,310323.924,165277.292,84529.2608
6.3,14306755.0,1701308.86,637617.828,314793.865,168405.964,86891.6994
6.35,14422368.8,1717679.77,644955.23,319263.728,171534.693,89254.7092
6.4,14537958.5,1734049.53,652292.356,323733.511,174663.471,91618.2229
6.45,14653524.0,1750418.14,659629.204,328203.212,177792.29,93982.1822
6.5,14769065.4,1766785.61,666965.773,332672.829,180921.143,96346.537
6.55,14884582.6,1783151.93,674302.063,337142.359,184050.026,98711.2438
6.6,15000075.7,1799517.1,681638.072,341611.802,187178.931,101076.264
