vds,vb1,vb2,vb3,vb4,vb5,vb6
0.0,-8.58637493e-25,-1.17697926e-24,1.6126075799999999e-19,-1.31067282e-19,-5.05961413e-19,-2.11984355e-19
0.05,1.93358218e-05,5.11964246e-05,7.44002125e-05,9.14728529e-05,0.000104298266,0.000114087142
0.1,3.47154939e-05,9.75508898e-05,0.000143928765,0.000178271572,0.00020419358,0.000224058575
0.15,4.64474377e-05,0.00013931727,0.000208799563,0.000260574857,0.000299836401,0.000330042625
0.2,5.48693554e-05,0.000176713563,0.000269195537,0.000338533793,0.000391351718,0.000432143546
0.25,6.04723799e-05,0.000209940133,0.000325285835,0.000412288494,0.000478855306,0.000530457507
0.3,6.40060933e-05,0.000239184627,0.000377230207,0.000481972408,0.00056245795,0.000625076753
0.35,6.63101512e-05,0.000264623798,0.000425180032,0.00054771342,0.000642266541,0.000716090682
0.4,6.79835944e-05,0.000286425692,0.000469278336,0.000609634108,0.000718384375,0.000803586143
0.45,6.93361885e-05,0.000304756079,0.000509659286,0.000667851726,0.000790911215,0.000887647518
0.5,7.05129024e-05,0.000319797979,0.000546447164,0.000722478005,0.000859943287,0.000968356743
0.55,7.15843603e-05,0.000331798474,0.000579754642,0.000773618776,0.000925573201,0.00104579331
0.6,7.25879539e-05,0.000341136475,0.000609680328,0.000821373315,0.000987889813,0.00112003422
0.65,7.35451873e-05,0.00034833858,0.000636306125,0.000865833289,0.00104697799,0.00119115396
0.7,7.44693324e-05,0.000353977204,0.000659697201,0.000907081099,0.00110291824,0.00125922437
0.75,7.53690684e-05,0.000358537541,0.000679912372,0.000945187388,0.00115578611,0.00132431453
0.8,7.62503445e-05,0.000362366441,0.000697038538,0.000980207501,0.00120565135,0.00138649054
0.85,7.71173985e-05,0.000365692382,0.000711253731,0.00101217705,0.00125257657,0.00144581514
0.9,7.79733469e-05,0.000368662846,0.000722881084,0.00104110802,0.00129661529,0.0015023473
0.95,7.88205429e-05,0.000371374192,0.000732368163,0.00106698985,0.00133780923,0.00155614151
1.0,7.96608043e-05,0.000373891004,0.000740192879,0.0010898053,0.00137618436,0.00160724672
1.05,8.0495562e-05,0.00037625786,0.000746774342,0.00110957211,0.00141174623,0.001655705
1.1,8.13259611e-05,0.000378506432,0.000752437383,0.00112640616,0.00144447504,0.00170154938
1.15,8.21529315e-05,0.000380659829,0.000757418318,0.00114056642,0.00147432416,0.00174480106
1.2,8.29772379e-05,0.000382735325,0.000761885109,0.00115243536,0.00150122839,0.00178546556
1.25,8.3799516e-05,0.00038474611,0.000765957096,0.00116244291,0.00152513204,0.00182352802
1.3,8.46202995e-05,0.000386702449,0.000769720035,0.0011709901,0.00154603992,0.00185894842
1.35,8.54400408e-05,0.000388612467,0.000773236576,0.00117840923,0.00156407278,0.00189165908
1.4,8.62591265e-05,0.000390482688,0.000776553334,0.00118495793,0.00157948817,0.00192156974
1.45,8.70778897e-05,0.000392318424,0.000779705622,0.00119082976,0.00159264487,0.00194858756
1.5,8.78966201e-05,0.000394124054,0.000782720664,0.0011961687,0.00160393467,0.00197265704
1.55,8.87155718e-05,0.000395903219,0.000785619784,0.00120108216,0.00161372319,0.00199381117
1.6,8.95349707e-05,0.000397658984,0.000788419935,0.00120565101,0.00162231965,0.00201220693
1.65,9.03550204e-05,0.000399393949,0.000791134774,0.00120993686,0.00162997113,0.00202811843
1.7,9.1175908e-05,0.000401110336,0.000793775442,0.00121398735,0.00163686946,0.00204189016
1.75,9.19978094e-05,0.000402810063,0.000796351125,0.00121783975,0.00164316196,0.00205387909
1.8,9.28208948e-05,0.000404494796,0.000798869477,0.00122152365,0.00164896173,0.00206441224
1.85,9.36453342e-05,0.000406166,0.000801336935,0.00122506284,0.00165435609,0.0020737671
1.9,9.44713026e-05,0.000407824971,0.000803758956,0.00122847663,0.00165941308,0.00208216885
1.95,9.5298986e-05,0.000409472874,0.000806140209,0.00123178092,0.00166418625,0.00208979603
2.0,9.61285876e-05,0.000411110769,0.000808484714,0.00123498888,0.00166871823,0.00209678889
2.05,9.69603339e-05,0.000412739644,0.000810795966,0.00123811155,0.00167304332,0.00210325749
2.1,9.77944814e-05,0.000414360435,0.000813077026,0.00124115826,0.00167718943,0.00210928861
2.15,9.86313237e-05,0.000415974056,0.000815330603,0.00124413694,0.00168117947,0.00211495109
2.2,9.94711986e-05,0.000417581423,0.000817559124,0.00124705441,0.00168503244,0.00212030006
2.25,0.000100314496,0.000419183481,0.000819764792,0.00124991657,0.00168876425,0.00212538005
2.3,0.000101161666,0.000420781226,0.000821949646,0.00125272854,0.0016923883,0.00213022737
2.35,0.000102013225,0.000422375737,0.000824115614,0.00125549485,0.001695916,0.00213487191
2.4,0.000102869769,0.000423968199,0.00082626456,0.00125821949,0.0016993571,0.00213933846
2.45,0.000103731976,0.000425559935,0.000828398342,0.00126090609,0.00170272004,0.00214364778
2.5,0.000104600621,0.00042715243,0.000830518858,0.00126355793,0.00170601213,0.00214781736
2.55,0.000105476582,0.000428747363,0.000832628097,0.00126617809,0.0017092398,0.0021518621
2.6,0.00010636085,0.000430346635,0.000834728195,0.00126876947,0.00171240871,0.00215579474
2.65,0.00010725454,0.000431952401,0.000836821482,0.00127133494,0.00171552396,0.00215962624
2.7,0.000108158898,0.000433567097,0.000838910543,0.00127387735,0.00171859014,0.00216336614
2.75,0.000109075316,0.000435193475,0.000840998266,0.00127639965,0.0017216115,0.00216702278
2.8,0.000110005339,0.000436834631,0.000843087899,0.00127890495,0.00172459207,0.00217060352
2.85,0.000110950674,0.000438494038,0.000845183109,0.0012813966,0.00172753571,0.00217411492
2.9,0.000111913208,0.000440175577,0.000847288035,0.00128387828,0.00173044624,0.00217756292
2.95,0.000112895008,0.000441883571,0.000849407347,0.00128635406,0.00173332759,0.00218095296
3.0,0.000113898341,0.000443622811,0.000851546301,0.00128882853,0.00173618382,0.00218429014
3.05,0.000114925681,0.000445398596,0.000853710802,0.00129130683,0.0017390193,0.00218757934
3.1,0.000115979719,0.000447216757,0.000855907453,0.00129379475,0.00174183877,0.00219082537
3.15,0.000117063375,0.000449083694,0.000858143622,0.00129629883,0.00174464748,0.00219403306
3.2,0.000118179808,0.000451006404,0.000860427494,0.00129882645,0.00174745129,0.00219720746
3.25,0.000119332428,0.000452992514,0.000862768128,0.00130138589,0.00175025676,0.00220035389
3.3,0.000120524904,0.000455050308,0.000865175518,0.00130398641,0.0017530713,0.00220347814
