vds,vb1,vb2,vb3,vb4,vb5,vb6
0.0,3.68365554e-23,-9.23581157e-23,5.98458189e-22,1.5276607300000002e-21,9.1886948e-22,1.72076264e-26
0.05,1.12121212e-07,3.20700489e-07,5.11693733e-07,6.78286052e-07,8.19092358e-07,9.34712219e-07
0.1,1.94626052e-07,6.0963828e-07,9.92748882e-07,1.32774624e-06,1.61140642e-06,1.84474841e-06
0.15,2.51003559e-07,8.70208742e-07,1.44654671e-06,1.95174818e-06,2.3802968e-06,2.73345134e-06
0.2,2.82638303e-07,1.10327964e-06,1.87394556e-06,2.55114125e-06,3.12660392e-06,3.60165288e-06
0.25,2.93675306e-07,1.30912153e-06,2.27520563e-06,3.12617724e-06,3.85057109e-06,4.44958822e-06
0.3,2.95849098e-07,1.48786626e-06,2.65044532e-06,3.67696604e-06,4.55229976e-06,5.27735068e-06
0.35,2.96481704e-07,1.639619e-06,2.99974939e-06,4.20358376e-06,5.23185754e-06,6.0849998e-06
0.4,2.96827505e-07,1.76449389e-06,3.32319467e-06,4.70609833e-06,5.88930395e-06,6.87258699e-06
0.45,2.97080946e-07,1.86265023e-06,3.62085632e-06,5.18457565e-06,6.52469642e-06,7.64016166e-06
0.5,2.97291544e-07,1.9344013e-06,3.89280953e-06,5.63908101e-06,7.1380918e-06,8.38777262e-06
0.55,2.97477571e-07,1.98066126e-06,4.13913031e-06,6.06967947e-06,7.72954667e-06,9.11546845e-06
0.6,2.97647573e-07,2.00466749e-06,4.35989645e-06,6.47643593e-06,8.29911743e-06,9.8232976e-06
0.65,2.97806224e-07,2.01445558e-06,4.55518924e-06,6.85941522e-06,8.84686033e-06,1.05113084e-05
0.7,2.97956367e-07,2.01856233e-06,4.72509704e-06,7.21868213e-06,9.37283148e-06,1.11795489e-05
0.75,2.98099872e-07,2.0208166e-06,4.8697234e-06,7.55430151e-06,9.87708685e-06,1.18280673e-05
0.8,2.98238039e-07,2.02235953e-06,4.98920738e-06,7.86633835e-06,1.03596823e-05,1.24569115e-05
0.85,2.9837181e-07,2.02355803e-06,5.08378041e-06,8.15485799e-06,1.08206735e-05,1.30661294e-05
0.9,2.98501894e-07,2.02455815e-06,5.15394234e-06,8.41992642e-06,1.1260116e-05,1.36557685e-05
0.95,2.98628837e-07,2.02542982e-06,5.20102114e-06,8.66161077e-06,1.16780654e-05,1.42258765e-05
1.0,2.98753071e-07,2.02621143e-06,5.22852981e-06,8.87998027e-06,1.2074577e-05,1.47765009e-05
1.05,2.98874942e-07,2.02692625e-06,5.24297789e-06,9.07510793e-06,1.24497062e-05,1.53076889e-05
1.1,2.98994734e-07,2.02758943e-06,5.25087203e-06,9.24707403e-06,1.28035084e-05,1.58194879e-05
1.15,2.99112681e-07,2.02821144e-06,5.25584775e-06,9.39597352e-06,1.31360388e-05,1.6311945e-05
1.2,2.9922898e-07,2.02879981e-06,5.25942381e-06,9.52193311e-06,1.34473529e-05,1.67851071e-05
1.25,2.99343797e-07,2.02936016e-06,5.26223276e-06,9.62515427e-06,1.37375065e-05,1.72390212e-05
1.3,2.99457275e-07,2.02989677e-06,5.26456937e-06,9.70602904e-06,1.40065556e-05,1.76737341e-05
1.35,2.99569537e-07,2.03041301e-06,5.26658858e-06,9.76545697e-06,1.42545571e-05,1.80892926e-05
1.4,2.9968069e-07,2.03091157e-06,5.2683804e-06,9.80557457e-06,1.44815691e-05,1.84857431e-05
1.45,2.99790831e-07,2.03139464e-06,5.27000137e-06,9.83057565e-06,1.4687652e-05,1.88631324e-05
1.5,2.99900047e-07,2.03186401e-06,5.27148925e-06,9.84589874e-06,1.48728702e-05,1.9221507e-05
1.55,3.00008419e-07,2.0323212e-06,5.27287047e-06,9.85590302e-06,1.50372954e-05,1.95609132e-05
1.6,3.00116028e-07,2.03276745e-06,5.27416425e-06,9.86305403e-06,1.51810144e-05,1.98813977e-05
1.65,3.0022296e-07,2.03320385e-06,5.27538502e-06,9.86857382e-06,1.53041453e-05,2.01830068e-05
1.7,3.00329309e-07,2.03363133e-06,5.27654389e-06,9.87307904e-06,1.54068773e-05,2.04657873e-05
1.75,3.00435183e-07,2.03405069e-06,5.27764959e-06,9.87690434e-06,1.54895699e-05,2.07297861e-05
1.8,3.0054072e-07,2.03446264e-06,5.27870913e-06,9.88024601e-06,1.55529988e-05,2.09750502e-05
1.85,3.00646088e-07,2.03486783e-06,5.2797282e-06,9.88322736e-06,1.55988559e-05,2.12016278e-05
1.9,3.00751502e-07,2.03526685e-06,5.2807115e-06,9.88593032e-06,1.56302799e-05,2.14095679e-05
1.95,3.00857236e-07,2.03566028e-06,5.28166294e-06,9.88841192e-06,1.56514686e-05,2.15989218e-05
2.0,3.00963637e-07,2.0360487e-06,5.28258583e-06,9.89071333e-06,1.566624e-05,2.17697447e-05
2.05,3.01071138e-07,2.03643274e-06,5.283483e-06,9.89286527e-06,1.56771573e-05,2.19220988e-05
2.1,3.01180277e-07,2.03681315e-06,5.28435686e-06,9.89489119e-06,1.56856995e-05,2.20560616e-05
2.15,3.01291716e-07,2.03719081e-06,5.28520953e-06,9.89680945e-06,1.56926971e-05,2.21717421e-05
2.2,3.01406252e-07,2.0375668e-06,5.28604288e-06,9.89863466e-06,1.56986327e-05,2.22693217e-05
2.25,3.01524844e-07,2.03794252e-06,5.28685859e-06,9.90037863e-06,1.57038016e-05,2.23491515e-05
2.3,3.01648624e-07,2.03831972e-06,5.28765823e-06,9.90205107e-06,1.57083942e-05,2.24119727e-05
2.35,3.01778919e-07,2.03870063e-06,5.28844332e-06,9.90366003e-06,1.57125394e-05,2.24593014e-05
2.4,3.01917266e-07,2.03908805e-06,5.28921543e-06,9.9052123e-06,1.57163278e-05,2.24937352e-05
2.45,3.0206543e-07,2.03948546e-06,5.28997626e-06,9.9067136e-06,1.57198254e-05,2.25185949e-05
2.5,3.02225419e-07,2.03989712e-06,5.29072779e-06,9.90816887e-06,1.57230816e-05,2.2536971e-05
2.55,3.02399501e-07,2.04032825e-06,5.29147239e-06,9.90958237e-06,1.57261342e-05,2.25511131e-05
2.6,3.02590212e-07,2.04078509e-06,5.29221302e-06,9.91095783e-06,1.57290128e-05,2.25624575e-05
2.65,3.02800373e-07,2.04127504e-06,5.29295343e-06,9.9122986e-06,1.57317413e-05,2.25718872e-05
2.7,3.03033095e-07,2.04180682e-06,5.29369834e-06,9.91360773e-06,1.57343386e-05,2.25799523e-05
2.75,3.03291792e-07,2.04239055e-06,5.29445376e-06,9.91488814e-06,1.57368206e-05,2.25870074e-05
2.8,3.03580186e-07,2.04303787e-06,5.2952272e-06,9.91614274e-06,1.57392002e-05,2.259329e-05
2.85,3.0390231e-07,2.04376206e-06,5.29602799e-06,9.91737464e-06,1.57414885e-05,2.25989651e-05
2.9,3.04262514e-07,2.04457817e-06,5.29686757e-06,9.91858732e-06,1.57436948e-05,2.26041513e-05
2.95,3.04665467e-07,2.04550304e-06,5.29775984e-06,9.91978492e-06,1.5745827e-05,2.26089361e-05
3.0,3.05116151e-07,2.04655544e-06,5.29872142e-06,9.92097253e-06,1.5747892e-05,2.26133858e-05
3.05,3.05619869e-07,2.04775614e-06,5.29977206e-06,9.92215652e-06,1.57498958e-05,2.26175518e-05
3.1,3.06182234e-07,2.04912793e-06,5.30093487e-06,9.92334498e-06,1.57518439e-05,2.26214747e-05
3.15,3.06809166e-07,2.05069572e-06,5.3022367e-06,9.92454814e-06,1.57537412e-05,2.26251869e-05
3.2,3.0750689e-07,2.05248652e-06,5.30370841e-06,9.92577886e-06,1.57555924e-05,2.26287148e-05
3.25,3.08281923e-07,2.05452953e-06,5.30538514e-06,9.92705319e-06,1.57574021e-05,2.26320803e-05
3.3,3.09141071e-07,2.05685608e-06,5.30730658e-06,9.9283909e-06,1.57591752e-05,2.26353016e-05
