vds,vb1,vb2,vb3,vb4,vb5,vb6
0.0,-5.47849865e-26,-2.48764068e-26,-1.9940379600000002e-25,-9.18365039e-21,-3.7252207600000004e-20,-9.988148400000001e-20
0.05,3.75512241e-06,9.96317192e-06,1.45524627e-05,1.8025406e-05,2.07318996e-05,2.28917676e-05
0.1,6.75323502e-06,1.90046036e-05,2.81732503e-05,3.51482687e-05,4.06030655e-05,4.4967701e-05
0.15,9.0514475e-06,2.71707477e-05,4.0902006e-05,5.14023341e-05,5.9642501e-05,6.62530499e-05
0.2,1.07129969e-05,3.45013158e-05,5.27723586e-05,6.68158786e-05,7.78741042e-05,8.6768208e-05
0.25,1.18306435e-05,4.10330078e-05,6.38154144e-05,8.14150923e-05,9.53199731e-05,0.000106531959
0.3,1.25463095e-05,4.68005872e-05,7.40606567e-05,9.52249498e-05,0.000112001258,0.000125562318
0.35,1.30204887e-05,5.18373905e-05,8.35361809e-05,0.000108269441,0.000127938387,0.000143876749
0.4,1.33693127e-05,5.61759471e-05,9.22687488e-05,0.000120571634,0.000143151126,0.000161492224
0.45,1.3653478e-05,5.98493033e-05,0.000100283769,0.00013215369,0.000157658603,0.000178425247
0.5,1.39016084e-05,6.28942277e-05,0.000107605221,0.000143036852,0.000171479311,0.000194691861
0.55,1.41277767e-05,6.53581569e-05,0.0001142555,0.000153241414,0.000184631107,0.000210307646
0.6,1.43395225e-05,6.73094452e-05,0.000120255187,0.00016278665,0.000197131198,0.000225287726
0.65,1.45412411e-05,6.88413973e-05,0.00012562278,0.000171690702,0.00020899612,0.000239646763
0.7,1.47356832e-05,7.00581719e-05,0.000130374667,0.000179970389,0.000220241694,0.000253398943
0.75,1.49246725e-05,7.10519192e-05,0.000134526176,0.000187640905,0.00023088296,0.000266557969
0.8,1.5109475e-05,7.18911184e-05,0.000138095496,0.000194715375,0.000240934065,0.000279137025
0.85,1.52910033e-05,7.26221972e-05,0.000141112052,0.000201204244,0.000250408102,0.000291148741
0.9,1.54699356e-05,7.32757532e-05,0.000143626362,0.000207114608,0.000259316856,0.000302605129
0.95,1.56467894e-05,7.38720938e-05,0.000145711723,0.000212449922,0.000267670433,0.000313517488
1.0,1.58219676e-05,7.44250047e-05,0.000147452519,0.000217211213,0.000275476728,0.000323896271
1.05,1.59957901e-05,7.49441059e-05,0.000148928129,0.000221401671,0.000282740701,0.000333750881
1.1,1.6168515e-05,7.5436299e-05,0.000150203473,0.000225035585,0.000289463537,0.000343089384
1.15,1.63403531e-05,7.59066646e-05,0.000151327595,0.000228148117,0.000295641984,0.00035191809
1.2,1.65114787e-05,7.63590307e-05,0.000152336263,0.000230797832,0.000301268666,0.000360240978
1.25,1.66820378e-05,7.67963425e-05,0.000153255356,0.000233058107,0.000306334852,0.000368058935
1.3,1.68521535e-05,7.72209074e-05,0.00015410372,0.000235003599,0.000310837089,0.000375368881
1.35,1.70219307e-05,7.76345634e-05,0.000154895265,0.000236700269,0.000314786833,0.000382163014
1.4,1.71914594e-05,7.80387956e-05,0.000155640431,0.000238201606,0.000318217924,0.000388428835
1.45,1.73608174e-05,7.84348195e-05,0.000156347182,0.000239549055,0.00032118581,0.000394151105
1.5,1.75300728e-05,7.88236416e-05,0.000157021699,0.000240774117,0.000323758345,0.00039931704
1.55,1.76992856e-05,7.92061039e-05,0.000157668851,0.000241900651,0.00032600435,0.00040392467
1.6,1.78685091e-05,7.95829177e-05,0.000158292528,0.000242946828,0.000327985622,0.000407991156
1.65,1.80377916e-05,7.99546886e-05,0.00015889588,0.000243926618,0.000329753662,0.000411555811
1.7,1.82071775e-05,8.03219368e-05,0.000159481488,0.000244850895,0.000331349662,0.000414675277
1.75,1.83767087e-05,8.06851126e-05,0.00016005149,0.000245728225,0.000332805925,0.000417413925
1.8,1.85464255e-05,8.10446087e-05,0.000160607673,0.000246565442,0.000334147633,0.000419834755
1.85,1.8716368e-05,8.14007707e-05,0.000161151546,0.000247368065,0.000335394457,0.000421993827
1.9,1.88865775e-05,8.17539056e-05,0.000161684393,0.000248140598,0.000336561859,0.000423938219
1.95,1.90570972e-05,8.21042894e-05,0.000162207316,0.000248886757,0.000337662103,0.000425706199
2.0,1.92279742e-05,8.24521739e-05,0.000162721266,0.000249609638,0.00033870501,0.000427328385
2.05,1.93992602e-05,8.27977926e-05,0.000163227073,0.000250311842,0.000339698526,0.000428829149
2.1,1.95710133e-05,8.31413668e-05,0.000163725466,0.000250995574,0.000340649142,0.00043022791
2.15,1.97432996e-05,8.34831112e-05,0.000164217088,0.000251662718,0.000341562215,0.000431540219
2.2,1.99161942e-05,8.38232394e-05,0.000164702518,0.000252314894,0.000342442202,0.000432778618
2.25,2.00897832e-05,8.41619696e-05,0.000165182282,0.000252953506,0.000343292847,0.000433953303
2.3,2.0264165e-05,8.44995304e-05,0.000165656862,0.000253579781,0.000344117318,0.000435072633
2.35,2.04394524e-05,8.48361658e-05,0.000166126715,0.000254194799,0.000344918316,0.000436143522
2.4,2.06157737e-05,8.51721419e-05,0.000166592279,0.00025479952,0.000345698162,0.000437171732
2.45,2.07932751e-05,8.55077519e-05,0.000167053985,0.000255394807,0.000346458863,0.000438162107
2.5,2.09721221e-05,8.58433224e-05,0.000167512272,0.000255981446,0.000347202167,0.000439118748
2.55,2.11525013e-05,8.61792193e-05,0.000167967591,0.000256560167,0.000347929609,0.000440045154
2.6,2.13346226e-05,8.65158538e-05,0.000168420424,0.000257131659,0.000348642548,0.000440944327
2.65,2.15187209e-05,8.68536884e-05,0.000168871288,0.00025769659,0.0003493422,0.000441818864
2.7,2.17050583e-05,8.71932429e-05,0.000169320752,0.000258255623,0.000350029666,0.000442671027
2.75,2.18939258e-05,8.75351009e-05,0.000169769445,0.00025880943,0.00035070596,0.000443502797
2.8,2.20856454e-05,8.78799156e-05,0.000170218067,0.000259358716,0.000351372032,0.000444315926
2.85,2.22805725e-05,8.8228416e-05,0.000170667404,0.000259904229,0.00035202879,0.000445111979
2.9,2.24790976e-05,8.85814135e-05,0.000171118335,0.000260446778,0.000352677128,0.000445892367
2.95,2.26816485e-05,8.89398076e-05,0.000171571847,0.000260987255,0.000353317944,0.000446658384
3.0,2.28886926e-05,8.93045925e-05,0.000172029043,0.000261526646,0.000353952166,0.000447411239
3.05,2.31007389e-05,8.96768631e-05,0.000172491157,0.000262066053,0.000354580772,0.00044815208
3.1,2.33183399e-05,9.00578211e-05,0.000172959563,0.000262606707,0.000355204815,0.000448882029
3.15,2.35420941e-05,9.04487815e-05,0.000173435788,0.000263149989,0.000355825444,0.000449602207
3.2,2.37726479e-05,9.08511781e-05,0.000173921521,0.000263697443,0.00035644393,0.000450313764
3.25,2.40106977e-05,9.126657e-05,0.000174418626,0.0002642508,0.000357061685,0.000451017909
3.3,2.42569918e-05,9.16966472e-05,0.000174929153,0.000264811984,0.00035768029,0.000451715932
