vds,vb1,vb2,vb3,vb4,vb5,vb6
0.0,-1.1187764e-26,-7.44932436e-27,2.57248648e-25,-2.3599262100000004e-21,-9.18787236e-21,-2.7822749300000004e-20
0.05,1.86582761e-06,4.97997578e-06,7.36093801e-06,9.23341795e-06,1.07562767e-05,1.20296794e-05
0.1,3.3597502e-06,9.50126787e-06,1.42495784e-05,1.8000143e-05,2.10583787e-05,2.3620026e-05
0.15,4.50953242e-06,1.35870109e-05,2.06862512e-05,2.63179788e-05,3.0922015e-05,3.47850482e-05
0.2,5.34594096e-06,1.72569878e-05,2.66882302e-05,3.42019237e-05,4.03602679e-05,4.55362552e-05
0.25,5.91402422e-06,2.05295286e-05,3.22715023e-05,4.16658823e-05,4.93852615e-05,5.58842938e-05
0.3,6.28268766e-06,2.34220862e-05,3.74512285e-05,4.87231079e-05,5.80085938e-05,6.5839372e-05
0.35,6.53051365e-06,2.5951547e-05,4.22418736e-05,5.5386323e-05,6.62414521e-05,7.54113713e-05
0.4,6.71500948e-06,2.81346265e-05,4.66572493e-05,6.16677568e-05,7.40946478e-05,8.46098792e-05
0.45,6.86643542e-06,2.99886269e-05,5.07105277e-05,6.75791587e-05,8.15786296e-05,9.34442016e-05
0.5,6.99912313e-06,3.15330439e-05,5.44142364e-05,7.31318016e-05,8.87034905e-05,0.000101923368
0.55,7.12017057e-06,3.27926744e-05,5.77802328e-05,7.83364748e-05,9.54789696e-05,0.000110056138
0.6,7.23342466e-06,3.3801818e-05,6.08196588e-05,8.3203464e-05,0.000101914451,0.000117850998
0.65,7.34115957e-06,3.46055649e-05,6.35428987e-05,8.77425108e-05,0.000108018954,0.000125316168
0.7,7.44481978e-06,3.52534258e-05,6.59596499e-05,9.19627411e-05,0.000113801122,0.000132459594
0.75,7.54537665e-06,3.57892741e-05,6.80794345e-05,9.58725474e-05,0.000119269187,0.000139288944
0.8,7.64351366e-06,3.62460919e-05,6.99132451e-05,9.94794073e-05,0.000124430927,0.000145811592
0.85,7.73972951e-06,3.66465936e-05,7.14769687e-05,0.000102789632,0.00012929359,0.000152034606
0.9,7.83439904e-06,3.70060036e-05,7.27954528e-05,0.000105808084,0.00013386377,0.000157964707
0.95,7.92781096e-06,3.73345956e-05,7.39032903e-05,0.000108538067,0.000138147236,0.000163608227
1.0,8.02019228e-06,3.76394551e-05,7.483997e-05,0.000110981891,0.000142148665,0.000168971033
1.05,8.11172464e-06,3.79255997e-05,7.56429172e-05,0.000113142971,0.000145871289,0.00017405842
1.1,8.20255554e-06,3.81966775e-05,7.63431832e-05,0.000115029863,0.000149316487,0.000178874943
1.15,8.29280638e-06,3.84554073e-05,7.69646224e-05,0.0001166606,0.000152483489,0.000183424193
1.2,8.38257821e-06,3.87038605e-05,7.75249328e-05,0.000118063667,0.000155369646,0.000187708464
1.25,8.47195598e-06,3.89436467e-05,7.80371297e-05,0.000119274028,0.00015797202,0.000191728333
1.3,8.56101177e-06,3.91760388e-05,7.85108372e-05,0.000120327075,0.000160290898,0.000195482204
1.35,8.64980725e-06,3.9402059e-05,7.89532599e-05,0.000121254191,0.000162334445,0.000198965994
1.4,8.73839559e-06,3.96225394e-05,7.93698737e-05,0.000122081064,0.00016412169,0.000202173416
1.45,8.82682296e-06,3.98381661e-05,7.97649066e-05,0.000122827841,0.000165681275,0.000205097555
1.5,8.9151298e-06,4.00495106e-05,8.01416737e-05,0.000123510045,0.000167046655,0.000207734224
1.55,9.00335178e-06,4.02570539e-05,8.05028127e-05,0.000124139595,0.000168250895,0.000210086478
1.6,9.09152073e-06,4.04612044e-05,8.08504498e-05,0.000124725689,0.000169323352,0.000212167941
1.65,9.1796654e-06,4.06623117e-05,8.11863208e-05,0.000125275492,0.000170288465,0.000214002586
1.7,9.26781212e-06,4.08606773e-05,8.15118585e-05,0.000125794645,0.000171165884,0.000215621006
1.75,9.3559855e-06,4.10565631e-05,8.18282575e-05,0.000126287641,0.00017197116,0.000217055516
1.8,9.44420905e-06,4.12501986e-05,8.21365235e-05,0.000126758104,0.000172716554,0.000218336389
1.85,9.53250583e-06,4.14417861e-05,8.24375102e-05,0.000127208985,0.000173411754,0.00021948994
1.9,9.6208991e-06,4.16315056e-05,8.27319484e-05,0.000127642715,0.000174064472,0.000220538061
1.95,9.70941293e-06,4.18195191e-05,8.30204676e-05,0.000128061318,0.000174680895,0.000221498545
2.0,9.79807293e-06,4.20059738e-05,8.33036148e-05,0.000128466488,0.000175266031,0.000222385707
2.05,9.88690691e-06,4.2191006e-05,8.35818681e-05,0.000128859664,0.00017582398,0.000223211044
2.1,9.9759456e-06,4.2374744e-05,8.38556488e-05,0.000129242069,0.000176358122,0.000223983815
2.15,1.00652234e-05,4.25573108e-05,8.41253311e-05,0.000129614756,0.000176871272,0.000224711521
2.2,1.01547793e-05,4.27388276e-05,8.43912509e-05,0.000129978636,0.000177365794,0.000225400279
2.25,1.02446573e-05,4.29194163e-05,8.46537128e-05,0.000130334502,0.000177843691,0.000226055123
2.3,1.03349076e-05,4.30992028e-05,8.49129976e-05,0.00013068305,0.000178306668,0.000226680224
2.35,1.04255873e-05,4.32783196e-05,8.5169368e-05,0.000131024896,0.000178756192,0.000227279068
2.4,1.05167614e-05,4.34569087e-05,8.54230751e-05,0.000131360588,0.00017919353,0.000227854591
2.45,1.06085032e-05,4.36351253e-05,8.56743644e-05,0.000131690622,0.000179619786,0.000228409283
2.5,1.07008961e-05,4.38131398e-05,8.59234811e-05,0.000132015449,0.000180035925,0.000228945271
2.55,1.07940336e-05,4.39911418e-05,8.61706764e-05,0.000132335486,0.000180442803,0.000229464386
2.6,1.0888021e-05,4.41693424e-05,8.6416213e-05,0.000132651129,0.000180841178,0.000229968212
2.65,1.0982976e-05,4.4347978e-05,8.66603709e-05,0.000132962758,0.000181231733,0.000230458129
2.7,1.10790297e-05,4.45273127e-05,8.69034535e-05,0.000133270748,0.00018161509,0.000230935346
2.75,1.11763277e-05,4.47076422e-05,8.71457931e-05,0.000133575476,0.000181991823,0.000231400934
2.8,1.12750314e-05,4.48892964e-05,8.73877569e-05,0.000133877334,0.000182362469,0.000231855843
2.85,1.13753185e-05,4.50726429e-05,8.76297529e-05,0.000134176733,0.000182727545,0.00023230093
2.9,1.14773847e-05,4.52580897e-05,8.78722357e-05,0.000134474114,0.000183087558,0.000232736974
2.95,1.15814443e-05,4.54460893e-05,8.81157125e-05,0.000134769959,0.000183443014,0.000233164692
3.0,1.16877314e-05,4.5637141e-05,8.83607491e-05,0.000135064795,0.000183794437,0.000233584762
3.05,1.17965011e-05,4.58317945e-05,8.86079755e-05,0.000135359206,0.000184142372,0.00023399783
3.1,1.19080307e-05,4.60306532e-05,8.88580919e-05,0.000135653844,0.000184487405,0.000234404531
3.15,1.20226205e-05,4.6234377e-05,8.91118748e-05,0.000135949432,0.000184830172,0.000234805502
3.2,1.21405948e-05,4.64436859e-05,8.93701824e-05,0.000136246778,0.000185171367,0.000235201399
3.25,1.22623037e-05,4.66593627e-05,8.96339607e-05,0.000136546783,0.000185511762,0.000235592908
3.3,1.23881231e-05,4.68822563e-05,8.99042493e-05,0.000136850446,0.000185852212,0.000235980766
