vds,vb1,vb2,vb3,vb4,vb5,vb6
0.0,9.933920600000001e-27,-3.2799564400000003e-26,-1.08241372e-26,-7.731639820000001e-26,6.16950959e-27,-5.63828501e-26
0.05,9.23310872e-07,2.80733868e-06,4.37321421e-06,5.66841363e-06,6.7511528e-06,7.66520418e-06
0.1,1.64807457e-06,5.3711938e-06,8.49408037e-06,1.10848427e-05,1.32548082e-05,1.50894643e-05
0.15,2.18561811e-06,7.70113232e-06,1.23715285e-05,1.6257568e-05,1.95186471e-05,2.22799288e-05
0.2,2.54845158e-06,9.80409347e-06,1.60119252e-05,2.11923751e-05,2.5547911e-05,2.92413509e-05
0.25,2.76058274e-06,1.16862732e-05,1.94209006e-05,2.5894347e-05,3.13471669e-05,3.59778318e-05
0.3,2.86889797e-06,1.33536105e-05,2.26037968e-05,3.03683064e-05,3.69207447e-05,4.24932538e-05
0.35,2.92640124e-06,1.48119617e-05,2.55657805e-05,3.46189251e-05,4.22728462e-05,4.8791389e-05
0.4,2.96322717e-06,1.60672591e-05,2.83118755e-05,3.86507538e-05,4.74075734e-05,5.48759265e-05
0.45,2.99080235e-06,1.7125801e-05,3.08469748e-05,4.24682304e-05,5.23289366e-05,6.07504806e-05
0.5,3.01340562e-06,1.79949056e-05,3.31758501e-05,4.60756842e-05,5.70408578e-05,6.64185937e-05
0.55,3.03291628e-06,1.86844216e-05,3.53031616e-05,4.94773381e-05,6.15471725e-05,7.18837377e-05
0.6,3.05030427e-06,1.92098066e-05,3.72334725e-05,5.26773102e-05,6.58516311e-05,7.71493154e-05
0.65,3.06613582e-06,1.95960558e-05,3.89712717e-05,5.56796146e-05,6.99579004e-05,8.22186613e-05
0.7,3.08077223e-06,1.98770812e-05,4.05210177e-05,5.8488161e-05,7.38695635e-05,8.70950427e-05
0.75,3.09445953e-06,2.00867003e-05,4.18872313e-05,6.11067522e-05,7.75901207e-05,9.17816603e-05
0.8,3.10737349e-06,2.02501517e-05,4.30747112e-05,6.35390792e-05,8.11229885e-05,9.62816487e-05
0.85,3.11964455e-06,2.03833406e-05,4.40890547e-05,6.5788711e-05,8.4471498e-05,0.000100598077
0.9,3.13137233e-06,2.04958255e-05,4.4937851e-05,6.78590776e-05,8.76388911e-05,0.000104733946
0.95,3.1426348e-06,2.05934681e-05,4.56328809e-05,6.97534416e-05,9.06283147e-05,0.000108692193
1.0,3.1534942e-06,2.06800225e-05,4.61924394e-05,7.14748584e-05,9.34428099e-05,0.000112475684
1.05,3.16400103e-06,2.07580054e-05,4.66408202e-05,7.30261341e-05,9.60852952e-05,0.000116087212
1.1,3.17419688e-06,2.08291753e-05,4.70036967e-05,7.44098339e-05,9.85585388e-05,0.000119529495
1.15,3.18411641e-06,2.08948048e-05,4.73031846e-05,7.56285208e-05,0.000100865115,0.000122805167
1.2,3.19378882e-06,2.09558429e-05,4.75559765e-05,7.66856289e-05,0.000103007334,0.000125916761
1.25,3.20323896e-06,2.10130154e-05,4.77739202e-05,7.75874465e-05,0.000104987138,0.000128866699
1.3,3.21248814e-06,2.10668895e-05,4.79653e-05,7.83457231e-05,0.000106805955,0.000131657254
1.35,3.2215548e-06,2.11179164e-05,4.81359615e-05,7.89785683e-05,0.000108464533,0.000134290515
1.4,3.23045502e-06,2.11664612e-05,4.82901092e-05,7.95078604e-05,0.000109962878,0.000136768309
1.45,3.23920291e-06,2.12128233e-05,4.84308353e-05,7.99550294e-05,0.000111300628,0.000139092105
1.5,3.24781096e-06,2.1257251e-05,4.85604645e-05,8.03382353e-05,0.000112478415,0.000141262854
1.55,3.25629032e-06,2.12999528e-05,4.86807809e-05,8.06716506e-05,0.000113500454,0.000143280781
1.6,3.26465108e-06,2.13411055e-05,4.87931791e-05,8.09659323e-05,0.000114377113,0.000145145137
1.65,3.27290244e-06,2.138086e-05,4.8898768e-05,8.12290158e-05,0.000115125093,0.000146854026
1.7,3.28105295e-06,2.14193463e-05,4.8998442e-05,8.14668384e-05,0.000115764575,0.000148404641
1.75,3.28911067e-06,2.14566775e-05,4.90929328e-05,8.16838948e-05,0.000116315545,0.000149794421
1.8,3.2970834e-06,2.14929522e-05,4.91828456e-05,8.18836376e-05,0.000116795417,0.000151023479
1.85,3.30497883e-06,2.15282577e-05,4.92686868e-05,8.20687591e-05,0.000117218301,0.000152097476
1.9,3.3128047e-06,2.15626713e-05,4.93508838e-05,8.22413901e-05,0.000117595228,0.000153028877
1.95,3.32056903e-06,2.15962624e-05,4.94298009e-05,8.24032408e-05,0.000117934716,0.000153835307
2.0,3.32828023e-06,2.16290941e-05,4.95057506e-05,8.25557012e-05,0.000118243341,0.000154536228
2.05,3.33594733e-06,2.16612245e-05,4.95790037e-05,8.26999144e-05,0.000118526215,0.000155150038
2.1,3.34358011e-06,2.16927079e-05,4.9649796e-05,8.2836831e-05,0.000118787355,0.00015569258
2.15,3.35118928e-06,2.17235963e-05,4.97183345e-05,8.29672486e-05,0.000119029953,0.0001561768
2.2,3.35878666e-06,2.17539402e-05,4.97848025e-05,8.30918432e-05,0.000119256575,0.000156613017
2.25,3.36638534e-06,2.17837901e-05,4.98493638e-05,8.32111918e-05,0.000119469308,0.000157009382
2.3,3.3739998e-06,2.18131975e-05,4.99121661e-05,8.3325791e-05,0.000119669868,0.000157372336
2.35,3.38164613e-06,2.1842216e-05,4.99733445e-05,8.34360714e-05,0.00011985968,0.000157707
2.4,3.38934214e-06,2.18709026e-05,5.00330245e-05,8.35424087e-05,0.000120039938,0.000158017477
2.45,3.39710749e-06,2.18993184e-05,5.00913247e-05,8.36451334e-05,0.000120211654,0.000158307084
2.5,3.4049639e-06,2.19275303e-05,5.01483599e-05,8.37445386e-05,0.000120375687,0.000158578533
2.55,3.41293522e-06,2.19556114e-05,5.02042432e-05,8.38408865e-05,0.000120532779,0.000158834061
2.6,3.42104758e-06,2.19836424e-05,5.02590891e-05,8.39344141e-05,0.000120683568,0.000159075528
2.65,3.42932955e-06,2.20117128e-05,5.03130159e-05,8.40253391e-05,0.000120828612,0.000159304497
2.7,3.43781223e-06,2.20399213e-05,5.03661482e-05,8.41138641e-05,0.0001209684,0.000159522292
2.75,3.4465294e-06,2.20683772e-05,5.04186193e-05,8.42001816e-05,0.000121103365,0.000159730041
2.8,3.45551759e-06,2.20972013e-05,5.04705742e-05,8.42844785e-05,0.000121233891,0.000159928714
2.85,3.46481623e-06,2.21265264e-05,5.05221713e-05,8.43669401e-05,0.000121360325,0.000160119151
2.9,3.47446776e-06,2.21564987e-05,5.05735852e-05,8.4447755e-05,0.000121482985,0.000160302082
2.95,3.4845177e-06,2.21872782e-05,5.06250092e-05,8.4527119e-05,0.000121602162,0.000160478149
3.0,3.49501475e-06,2.22190397e-05,5.0676657e-05,8.46052391e-05,0.000121718134,0.000160647917
3.05,3.50601092e-06,2.22519733e-05,5.07287653e-05,8.46823382e-05,0.000121831166,0.000160811892
3.1,3.51756155e-06,2.22862853e-05,5.07815958e-05,8.47586587e-05,0.00012194152,0.000160970528
3.15,3.52972543e-06,2.2322199e-05,5.08354371e-05,8.4834467e-05,0.00012204946,0.000161124238
3.2,3.54256488e-06,2.23599552e-05,5.08906068e-05,8.49100567e-05,0.000122155257,0.000161273405
3.25,3.55614578e-06,2.23998126e-05,5.09474532e-05,8.49857534e-05,0.000122259198,0.000161418389
3.3,3.57053765e-06,2.24420487e-05,5.10063573e-05,8.50619175e-05,0.000122361589,0.000161559534
