vds,vb1,vb2,vb3,vb4,vb5,vb6
0.0,2.88269346e-22,-4.85058086e-21,-9.24496955e-26,-2.71751195e-25,-3.01457085e-27,5.926115960000001e-25
0.05,1.26045892e-06,3.60606457e-06,5.70132398e-06,7.46309696e-06,8.88580836e-06,9.99186355e-06
0.1,2.14662279e-06,6.81578079e-06,1.10245941e-05,1.45740587e-05,1.74472109e-05,1.96865818e-05
0.15,2.72655459e-06,9.6959644e-06,1.60364809e-05,2.13994285e-05,2.57506391e-05,2.91504919e-05
0.2,3.02456679e-06,1.22628105e-05,2.07530958e-05,2.79552496e-05,3.38120726e-05,3.83995161e-05
0.25,3.1081904e-06,1.45205534e-05,2.51785805e-05,3.42456013e-05,4.16355321e-05,4.74376223e-05
0.3,3.12182817e-06,1.6470631e-05,2.93142433e-05,4.02717289e-05,4.92222047e-05,5.62659445e-05
0.35,3.12590914e-06,1.81138951e-05,3.31607233e-05,4.60342062e-05,5.65726052e-05,6.48849445e-05
0.4,3.12821034e-06,1.94512507e-05,3.67185035e-05,5.15334478e-05,6.36870894e-05,7.32949249e-05
0.45,3.12993586e-06,2.04841823e-05,3.99880336e-05,5.67698307e-05,7.05659748e-05,8.14961502e-05
0.5,3.13139917e-06,2.12163354e-05,4.29697615e-05,6.17437231e-05,7.72095701e-05,8.94888758e-05
0.55,3.13271561e-06,2.1660515e-05,4.56641461e-05,6.64554912e-05,8.36181814e-05,9.72733548e-05
0.6,3.13393826e-06,2.18652221e-05,4.80716681e-05,7.09055014e-05,8.97921142e-05,0.00010484984
0.65,3.13509561e-06,2.19371276e-05,5.01928512e-05,7.50941208e-05,9.57316737e-05,0.000112218582
0.7,3.13620466e-06,2.19649097e-05,5.20283042e-05,7.90217178e-05,0.000101437165,0.000119379835
0.75,3.13727642e-06,2.19797672e-05,5.35788207e-05,8.26886634e-05,0.000106908893,0.000126333848
0.8,3.13831842e-06,2.19898902e-05,5.4845635e-05,8.6095332e-05,0.000112147163,0.000133080875
0.85,3.13933606e-06,2.19977944e-05,5.58311612e-05,8.92421037e-05,0.000117152279,0.000139621167
0.9,3.14033338e-06,2.20044548e-05,5.65413829e-05,9.21293679e-05,0.000121924547,0.000145954974
0.95,3.14131344e-06,2.20103272e-05,5.69937126e-05,9.47575291e-05,0.000126464273,0.000152082547
1.0,3.14227866e-06,2.20156562e-05,5.72353993e-05,9.71270175e-05,0.000130771763,0.000158004139
1.05,3.14323096e-06,2.20205874e-05,5.73485747e-05,9.92383092e-05,0.000134847323,0.000163719999
1.1,3.14417193e-06,2.2025214e-05,5.7404862e-05,0.000101091966,0.000138691263,0.000169230378
1.15,3.14510285e-06,2.20295995e-05,5.74384739e-05,0.000102688722,0.000142303892,0.000174535528
1.2,3.14602481e-06,2.20337892e-05,5.74620369e-05,0.000104029682,0.000145685524,0.000179635699
1.25,3.14693871e-06,2.20378163e-05,5.74803907e-05,0.000105116822,0.000148836477,0.000184531142
1.3,3.14784535e-06,2.20417063e-05,5.74956628e-05,0.00010595435,0.000151757076,0.000189222108
1.35,3.14874538e-06,2.20454788e-05,5.75089232e-05,0.000106552502,0.000154447655,0.000193708849
1.4,3.1496394e-06,2.20491497e-05,5.75207725e-05,0.000106936555,0.000156908566,0.000197991615
1.45,3.15052793e-06,2.20527316e-05,5.7531578e-05,0.000107157242,0.000159140191,0.00020207066
1.5,3.15141145e-06,2.20562349e-05,5.75415797e-05,0.00010727962,0.000161142958,0.000205946236
1.55,3.15229039e-06,2.20596684e-05,5.75509427e-05,0.000107352904,0.000162917384,0.000209618597
1.6,3.15316519e-06,2.20630393e-05,5.75597857e-05,0.000107402404,0.000164464151,0.000213088
1.65,3.15403631e-06,2.20663538e-05,5.75681968e-05,0.000107439425,0.000165784284,0.000216354702
1.7,3.15490424e-06,2.20696172e-05,5.75762431e-05,0.000107469174,0.000166879547,0.000219418965
1.75,3.15576957e-06,2.20728343e-05,5.75839771e-05,0.000107494276,0.000167753428,0.000222281055
1.8,3.15663302e-06,2.2076009e-05,5.75914405e-05,0.000107516185,0.000168413567,0.000224941247
1.85,3.15749547e-06,2.2079145e-05,5.75986673e-05,0.000107535775,0.000168877057,0.000227399826
1.9,3.15835807e-06,2.20822458e-05,5.76056852e-05,0.000107553608,0.000169177587,0.000229657095
1.95,3.15922224e-06,2.20853145e-05,5.76125174e-05,0.000107570062,0.000169363861,0.000231713388
2.0,3.16008982e-06,2.20883546e-05,5.76191832e-05,0.000107585408,0.00016948232,0.000233569085
2.05,3.1609631e-06,2.20913695e-05,5.76256994e-05,0.000107599842,0.000169563574,0.000235224657
2.1,3.16184492e-06,2.20943635e-05,5.763208e-05,0.000107613512,0.000169624014,0.000236680734
2.15,3.16273877e-06,2.20973413e-05,5.76383375e-05,0.000107626533,0.000169671997,0.00023793826
2.2,3.16364891e-06,2.21003092e-05,5.76444826e-05,0.000107638996,0.000169711954,0.000238998832
2.25,3.16458041e-06,2.21032749e-05,5.76505253e-05,0.000107650973,0.000169746397,0.000239865463
2.3,3.16553931e-06,2.2106248e-05,5.76564744e-05,0.000107662525,0.000169776848,0.000240544303
2.35,3.16653269e-06,2.21092411e-05,5.76623388e-05,0.000107673698,0.000169804286,0.000241048111
2.4,3.16756877e-06,2.21122696e-05,5.76681273e-05,0.000107684536,0.000169829375,0.000241400928
2.45,3.16865701e-06,2.21153531e-05,5.76738495e-05,0.000107695071,0.000169852581,0.00024163863
2.5,3.16980818e-06,2.21185153e-05,5.76795163e-05,0.000107705335,0.000169874245,0.000241799675
2.55,3.17103449e-06,2.21217855e-05,5.76851409e-05,0.000107715352,0.000169894624,0.000241913912
2.6,3.17234959e-06,2.21251987e-05,5.76907396e-05,0.000107725144,0.000169913915,0.000241999942
2.65,3.17376873e-06,2.21287964e-05,5.76963329e-05,0.000107734732,0.000169932272,0.000242068345
2.7,3.17530872e-06,2.21326278e-05,5.77019467e-05,0.000107744133,0.000169949821,0.000242125122
2.75,3.17698807e-06,2.213675e-05,5.77076141e-05,0.000107753364,0.000169966661,0.000242173816
2.8,3.17882697e-06,2.21412287e-05,5.77133764e-05,0.000107762441,0.000169982876,0.000242216624
2.85,3.18084735e-06,2.21461392e-05,5.77192851e-05,0.000107771382,0.000169998535,0.000242254978
2.9,3.18307291e-06,2.21515668e-05,5.77254034e-05,0.000107780206,0.000170013696,0.000242289857
2.95,3.1855291e-06,2.21576074e-05,5.77318085e-05,0.000107788934,0.000170028409,0.000242321952
3.0,3.18824315e-06,2.21643679e-05,5.77385929e-05,0.000107797594,0.000170042716,0.00024235177
3.05,3.19124408e-06,2.21719667e-05,5.77458667e-05,0.000107806219,0.000170056655,0.00024237969
3.1,3.19456263e-06,2.21805342e-05,5.77537594e-05,0.000107814852,0.000170070258,0.000242406007
3.15,3.19823131e-06,2.21902128e-05,5.77624215e-05,0.000107823545,0.000170083555,0.000242430951
3.2,3.20228431e-06,2.22011578e-05,5.77720268e-05,0.000107832368,0.000170096573,0.000242454705
3.25,3.20675751e-06,2.22135367e-05,5.77827734e-05,0.000107841404,0.000170109337,0.000242477419
3.3,3.21168841e-06,2.22275299e-05,5.77948861e-05,0.000107850758,0.000170121876,0.000242499217
