vds,vb1,vb2,vb3,vb4,vb5,vb6
0.0,-2.08631719e-26,-3.75782869e-25,4.1905035400000004e-26,2.7021938199999997e-24,1.19757738e-24,-2.06541203e-24
0.05,9.69785799e-06,3.18545175e-05,5.05875092e-05,6.57576176e-05,7.77799017e-05,8.71222989e-05
0.1,1.70534772e-05,6.09307528e-05,9.83949107e-05,0.000128835448,0.000153024788,0.000171873946
0.15,2.21908504e-05,8.73369004e-05,0.000143525102,0.000189330792,0.000225826688,0.000254342277
0.2,2.52374725e-05,0.00011113081,0.000186031371,0.000247291996,0.000296229197,0.000334566591
0.25,2.65678924e-05,0.000132357782,0.000225954568,0.000302755177,0.000364263844,0.000412574251
0.3,2.70095433e-05,0.000151059726,0.000263332072,0.000355753127,0.000429958951,0.000488389502
0.35,2.71893246e-05,0.000167277583,0.00029819995,0.000406317466,0.000493341782,0.000562035615
0.4,2.72948653e-05,0.000181052428,0.000330593478,0.000454479172,0.000554439069,0.000633535417
0.45,2.73718227e-05,0.000192427178,0.000360547261,0.000500268702,0.000613277143,0.000702911422
0.5,2.74345419e-05,0.000201451428,0.00038809525,0.000543716029,0.000669881968,0.00077018586
0.55,2.74888801e-05,0.000208197754,0.000413270722,0.000584850646,0.000724279147,0.00083538069
0.6,2.75377205e-05,0.00021281598,0.000436106226,0.000623701558,0.000776493931,0.000898517602
0.65,2.75826786e-05,0.000215654533,0.000456633496,0.000660297274,0.000826551214,0.000959618021
0.7,2.76247476e-05,0.000217295766,0.000474883293,0.000694665786,0.000874475535,0.00101870311
0.75,2.76645813e-05,0.000218290268,0.000490885187,0.000726834532,0.000920291075,0.00107579376
0.8,2.77026329e-05,0.000218959597,0.000504667373,0.000756830338,0.000964021649,0.00113091061
0.85,2.77392299e-05,0.000219455522,0.000516257249,0.000784679327,0.0010056907,0.00118407403
0.9,2.77746164e-05,0.00021984973,0.000525686046,0.000810406764,0.00104532128,0.00123530412
0.95,2.78089798e-05,0.000220178901,0.000533009541,0.000834036801,0.00108293602,0.00128462073
1.0,2.78424666e-05,0.000220463539,0.000538369868,0.000855592056,0.00111855712,0.00133204342
1.05,2.78751942e-05,0.000220716018,0.000542083089,0.000875092904,0.00115220626,0.00137759149
1.1,2.79072574e-05,0.000220944291,0.000544610657,0.000892556295,0.00118390454,0.00142128393
1.15,2.79387347e-05,0.000221153737,0.00054638338,0.000907993919,0.00121367235,0.00146313944
1.2,2.7969691e-05,0.000221348146,0.000547694549,0.000921409867,0.00124152917,0.00150317642
1.25,2.80001812e-05,0.000221530283,0.000548717042,0.000932800055,0.00126749329,0.00154141287
1.3,2.80302521e-05,0.000221702223,0.00054955027,0.00094216284,0.00129158126,0.00157786644
1.35,2.80599437e-05,0.000221865561,0.000550253101,0.00094954245,0.00131380715,0.0016125543
1.4,2.80892909e-05,0.000222021546,0.000550862024,0.000955110385,0.00133418127,0.0016454931
1.45,2.81183242e-05,0.000222171177,0.000551400737,0.000959201295,0.00135270804,0.00167669879
1.5,2.81470708e-05,0.000222315264,0.000551885293,0.000962217839,0.00136938283,0.00170618647
1.55,2.81755554e-05,0.000222454471,0.000552326975,0.000964503602,0.00138418774,0.00173397007
1.6,2.82038012e-05,0.000222589352,0.000552733969,0.000966299152,0.00139708871,0.00176006191
1.65,2.823183e-05,0.00022272037,0.000553112377,0.000967759686,0.00140804299,0.00178447198
1.7,2.82596638e-05,0.00022284792,0.000553466856,0.000968983964,0.00141703621,0.00180720684
1.75,2.8287325e-05,0.000222972341,0.000553801032,0.000970035964,0.00142415632,0.00182826785
1.8,2.83148377e-05,0.000223093924,0.000554117781,0.000970958366,0.00142964601,0.00184764847
1.85,2.83422283e-05,0.000223212928,0.000554419416,0.000971780557,0.00143385337,0.00186533022
1.9,2.83695266e-05,0.000223329579,0.000554707828,0.000972523396,0.00143712245,0.00188127755
1.95,2.83967667e-05,0.000223444086,0.000554984575,0.000973202099,0.00143972555,0.00189543409
2.0,2.8423988e-05,0.00022355664,0.000555250962,0.000973828041,0.00144185534,0.0019077288
2.05,2.84512365e-05,0.000223667425,0.000555508089,0.000974409913,0.00144364265,0.00191810815
2.1,2.84785654e-05,0.000223776623,0.000555756892,0.000974954484,0.00144517605,0.00192660146
2.15,2.85060365e-05,0.000223884421,0.000555998178,0.000975467113,0.00144651643,0.00193337782
2.2,2.8533721e-05,0.000223991017,0.00055623265,0.000975952112,0.00144770658,0.0019387267
2.25,2.85617006e-05,0.00022409663,0.000556460924,0.000976412991,0.00144877729,0.00194297183
2.3,2.85900685e-05,0.000224201504,0.000556683555,0.000976852647,0.00144975123,0.00194639682
2.35,2.86189302e-05,0.000224305919,0.00055690105,0.000977273494,0.00145064547,0.00194921885
2.4,2.86484043e-05,0.000224410197,0.000557113887,0.000977677565,0.00145147311,0.00195159417
2.45,2.86786237e-05,0.000224514711,0.000557322527,0.000978066589,0.00145224437,0.00195363301
2.5,2.87097359e-05,0.000224619893,0.000557527437,0.000978442049,0.00145296738,0.00195541332
2.55,2.87419039e-05,0.000224726242,0.000557729103,0.000978805231,0.00145364867,0.001956991
2.6,2.87753068e-05,0.000224834331,0.00055792805,0.000979157266,0.00145429357,0.00195840684
2.65,2.88101406e-05,0.000224944819,0.000558124859,0.000979499162,0.00145490648,0.00195969116
2.7,2.88466183e-05,0.00022505845,0.000558320188,0.000979831836,0.00145549105,0.00196086696
2.75,2.88849706e-05,0.000225176068,0.000558514792,0.000980156146,0.00145605038,0.00196195199
2.8,2.89254461e-05,0.000225298621,0.000558709542,0.000980472916,0.00145658709,0.00196296013
2.85,2.8968312e-05,0.000225427164,0.000558905444,0.000980782971,0.00145710342,0.00196390245
2.9,2.90138539e-05,0.00022556287,0.000559103663,0.000981087162,0.00145760133,0.00196478788
2.95,2.90623763e-05,0.00022570703,0.00055930554,0.000981386403,0.00145808251,0.00196562369
3.0,2.91142028e-05,0.000225861062,0.000559512612,0.000981681699,0.0014585485,0.00196641589
3.05,2.91696757e-05,0.000226026513,0.000559726629,0.000981974184,0.00145900068,0.00196716951
3.1,2.92291568e-05,0.00022620506,0.000559949575,0.000982265151,0.00145944033,0.00196788875
3.15,2.92930268e-05,0.000226398519,0.000560183682,0.000982556093,0.00145986869,0.0019685772
3.2,2.93616856e-05,0.000226608844,0.000560431446,0.000982848734,0.00146028699,0.00196923795
3.25,2.9435552e-05,0.000226838127,0.000560695643,0.000983145068,0.0014606965,0.00196987365
3.3,2.95150637e-05,0.000227088605,0.00056097934,0.00098344739,0.00146109856,0.00197048664
