vds,vb1,vb2,vb3,vb4,vb5,vb6
0.0,-5.1125446099999997e-33,-2.4554629100000003e-31,-6.09341629e-21,5.54992865e-21,-1.58500588e-20,6.47758551e-20
0.05,1.55224712e-06,6.18616212e-06,9.5011793e-06,1.19106441e-05,1.37273109e-05,1.51366412e-05
0.1,2.60931529e-06,1.16751558e-05,1.82922283e-05,2.31369935e-05,2.68075355e-05,2.96655135e-05
0.15,3.24938624e-06,1.65071412e-05,2.64059531e-05,3.370557e-05,3.92622648e-05,4.3604407e-05
0.2,3.60035488e-06,2.07196806e-05,3.38733605e-05,4.36417153e-05,5.11122883e-05,5.69705479e-05
0.25,3.80513564e-06,2.43480426e-05,4.07237095e-05,5.29696157e-05,6.23776059e-05,6.97806037e-05
0.3,3.94930214e-06,2.74256858e-05,4.69845477e-05,6.17123301e-05,7.30774465e-05,8.20506947e-05
0.35,4.06700531e-06,2.99852952e-05,5.26817024e-05,6.9891803e-05,8.32302805e-05,9.37964036e-05
0.4,4.17129992e-06,3.20614947e-05,5.78392037e-05,7.75288602e-05,9.2853828e-05,0.000105032783
0.45,4.26786756e-06,3.36973685e-05,6.24791027e-05,8.46431759e-05,0.000101965058,0.000115774358
0.5,4.35956084e-06,3.49544218e-05,6.66211505e-05,9.12531943e-05,0.000110580175,0.000126035132
0.55,4.44798607e-06,3.59145646e-05,7.02823822e-05,9.73759822e-05,0.000118714593,0.000135828576
0.6,4.53412975e-06,3.66631646e-05,7.34769936e-05,0.00010302697,0.000126382876,0.00014516762
0.65,4.61863884e-06,3.72690309e-05,7.62178335e-05,0.00010821953,0.000133598642,0.000154064632
0.7,4.70195962e-06,3.77791296e-05,7.85220206e-05,0.000112964336,0.000140374405,0.000162531373
0.75,4.78441252e-06,3.82234267e-05,8.04212337e-05,0.000117268535,0.000146721324,0.000170578939
0.8,4.86623506e-06,3.86209449e-05,8.1968825e-05,0.000121135063,0.000152648808,0.000178217659
0.85,4.94760801e-06,3.8984045e-05,8.32332071e-05,0.000124563237,0.000158163932,0.000185456946
0.9,5.02867197e-06,3.93210254e-05,8.42820908e-05,0.000127552797,0.000163270621,0.000192305066
0.95,5.10953835e-06,3.96376466e-05,8.51713313e-05,0.000130112946,0.000167968684,0.000198768796
1.0,5.19029681e-06,3.99380332e-05,8.59425271e-05,0.000132272485,0.000172253116,0.000204852921
1.05,5.2710205e-06,4.02252218e-05,8.66253324e-05,0.00013408172,0.000176114798,0.000210559533
1.1,5.35176982e-06,4.05015028e-05,8.7240694e-05,0.000135602744,0.000179544498,0.000215887127
1.15,5.43259513e-06,4.07686409e-05,8.78035358e-05,0.000136896328,0.000182541247,0.000220829667
1.2,5.51353885e-06,4.10280217e-05,8.83246674e-05,0.000138013888,0.000185122013,0.000225376143
1.25,5.59463697e-06,4.12807508e-05,8.88120702e-05,0.000138995548,0.000187325325,0.000229511803
1.3,5.6759203e-06,4.15277235e-05,8.92717532e-05,0.000139871457,0.00018920502,0.000233222604
1.35,5.75741539e-06,4.1769674e-05,8.97083253e-05,0.000140664003,0.000190818966,0.000236503275
1.4,5.83914532e-06,4.20072111e-05,9.01253827e-05,0.000141389859,0.000192220095,0.000239365833
1.45,5.92113033e-06,4.22408455e-05,9.05257756e-05,0.00014206156,0.000193452395,0.000241842704
1.5,6.00338835e-06,4.24710087e-05,9.09117953e-05,0.000142688657,0.000194550588,0.000243981671
1.55,6.08593554e-06,4.26980693e-05,9.12853075e-05,0.000143278534,0.00019554144,0.000245836349
1.6,6.16878667e-06,4.2922344e-05,9.16478493e-05,0.000143836978,0.00019644545,0.000247457887
1.65,6.25195559e-06,4.31441072e-05,9.20007002e-05,0.000144368589,0.000197278358,0.000248890509
1.7,6.33545565e-06,4.33635988e-05,9.23449357e-05,0.000144877072,0.000198052349,0.000250170361
1.75,6.41930011e-06,4.35810299e-05,9.26814677e-05,0.000145365444,0.000198776954,0.000251326139
1.8,6.5035026e-06,4.37965882e-05,9.30110756e-05,0.000145836191,0.000199459715,0.000252380354
1.85,6.58807753e-06,4.40104423e-05,9.33344309e-05,0.00014629138,0.000200106666,0.000253350634
1.9,6.67304063e-06,4.4222746e-05,9.36521165e-05,0.000146732748,0.000200722692,0.000254250843
1.95,6.75840942e-06,4.44336417e-05,9.39646418e-05,0.000147161766,0.00020131179,0.000255091964
2.0,6.84420373e-06,4.46432636e-05,9.42724566e-05,0.000147579689,0.000201877262,0.000255882776
2.05,6.93044625e-06,4.48517416e-05,9.4575961e-05,0.000147987598,0.000202421862,0.000256630365
2.1,7.01716314e-06,4.50592038e-05,9.48755154e-05,0.000148386427,0.000202947907,0.000257340506
2.15,7.10438461e-06,4.52657803e-05,9.51714489e-05,0.000148776995,0.000203457364,0.000258017951
2.2,7.19214558e-06,4.54716058e-05,9.5464067e-05,0.000149160019,0.000203951911,0.000258666646
2.25,7.2804863e-06,4.56768234e-05,9.57536586e-05,0.000149536139,0.000204432996,0.000259289895
2.3,7.3694531e-06,4.58815871e-05,9.60405033e-05,0.000149905927,0.000204901871,0.000259890485
2.35,7.45909907e-06,4.60860658e-05,9.63248781e-05,0.000150269904,0.000205359634,0.00026047079
2.4,7.54948481e-06,4.62904459e-05,9.6607064e-05,0.000150628553,0.000205807247,0.000261032842
2.45,7.64067919e-06,4.64949351e-05,9.68873528e-05,0.000150982325,0.000206245567,0.000261578395
2.5,7.73276021e-06,4.66997654e-05,9.71660534e-05,0.000151331657,0.000206675364,0.000262108973
2.55,7.82581575e-06,4.69051966e-05,9.7443499e-05,0.000151676978,0.000207097337,0.000262625907
2.6,7.91994448e-06,4.71115197e-05,9.77200533e-05,0.00015201872,0.000207512133,0.000263130376
2.65,8.01525669e-06,4.73190603e-05,9.79961172e-05,0.000152357329,0.000207920361,0.000263623424
2.7,8.11187525e-06,4.75281819e-05,9.82721358e-05,0.000152693277,0.000208322607,0.000264105995
2.75,8.20993649e-06,4.77392895e-05,9.85486048e-05,0.000153027067,0.000208719448,0.000264578948
2.8,8.30959114e-06,4.79528331e-05,9.88260773e-05,0.00015335925,0.000209111467,0.000265043079
2.85,8.41100534e-06,4.8169311e-05,9.91051704e-05,0.00015369043,0.000209499265,0.000265499141
2.9,8.51436157e-06,4.83892733e-05,9.93865719e-05,0.000154021276,0.000209883478,0.000265947863
2.95,8.61985966e-06,4.86133257e-05,9.96710472e-05,0.000154352533,0.000210264787,0.000266389965
3.0,8.7277178e-06,4.88421324e-05,9.99594457e-05,0.000154685031,0.000210643934,0.000266826176
3.05,8.83817354e-06,4.90764202e-05,0.000100252707,0.000155019697,0.000211021738,0.000267257256
3.1,8.95148481e-06,4.93169813e-05,0.000100551869,0.000155357563,0.000211399105,0.000267684006
3.15,9.06793094e-06,4.95646774e-05,0.000100858073,0.000155699775,0.000211777041,0.000268107291
3.2,9.18781365e-06,4.98204423e-05,0.000101172569,0.000156047607,0.000212156672,0.000268528057
3.25,9.31145806e-06,5.00852857e-05,0.000101496726,0.000156402468,0.000212539251,0.000268947346
3.3,9.43921373e-06,5.03602962e-05,0.000101832036,0.000156765914,0.000212926175,0.000269366313
