vds,vb1,vb2,vb3,vb4,vb5,vb6
0.0,-1.3190856400000002e-31,5.25200458e-31,-3.73633486e-20,-6.57337744e-20,4.00562791e-20,9.49721764e-20
0.05,2.76999553e-06,1.21290816e-05,1.86287095e-05,2.31742132e-05,2.6464687e-05,2.89077902e-05
0.1,4.57507961e-06,2.28569774e-05,3.58535608e-05,4.50204488e-05,5.16961137e-05,5.66770823e-05
0.15,5.59771004e-06,3.22648996e-05,5.17386911e-05,6.55888567e-05,7.5733857e-05,8.33395607e-05
0.2,6.12806693e-06,4.04285122e-05,6.63447153e-05,8.49274217e-05,9.86161004e-05,0.000108925974
0.25,6.43869193e-06,4.74183915e-05,7.97287689e-05,0.000103081984,0.000120379641,0.000133466134
0.3,6.6642062e-06,5.33008533e-05,9.19445049e-05,0.000120096268,0.000141059912,0.000156988933
0.35,6.85315677e-06,5.81402333e-05,0.000103041968,0.000136011874,0.000160690991,0.000179522352
0.4,7.02372241e-06,6.2006002e-05,0.000113067283,0.00015086823,0.000179305602,0.000201093463
0.45,7.18383663e-06,6.49905123e-05,0.000122062066,0.000164702475,0.000196935094,0.000221728434
0.5,7.33749549e-06,6.7232704e-05,0.00013006249,0.000177549239,0.000213609397,0.000241452517
0.55,7.48694952e-06,6.89138286e-05,0.000137098221,0.000189440254,0.000229356946,0.000260290035
0.6,7.6335778e-06,7.02106162e-05,0.000143192445,0.000200403722,0.000244204539,0.000278264348
0.65,7.77828161e-06,7.12560736e-05,0.000148366721,0.00021046331,0.000258177118,0.000295397799
0.7,7.92168023e-06,7.21365506e-05,0.000152656476,0.000219636699,0.00027129742,0.000311711629
0.75,8.0642164e-06,7.29054167e-05,0.000156135262,0.000227933811,0.000283585438,0.000327225849
0.8,8.20621699e-06,7.35958737e-05,0.000158925417,0.000235355615,0.000295057594,0.000341959042
0.85,8.34792978e-06,7.42291985e-05,0.000161175718,0.000241896183,0.000305725549,0.000355928074
0.9,8.48954678e-06,7.48195265e-05,0.000163025558,0.000247552782,0.000315594563,0.000369147653
0.95,8.63121957e-06,7.53765867e-05,0.000164584929,0.00025234631,0.000324661603,0.000381629691
1.0,8.77306973e-06,7.59072955e-05,0.000165933119,0.000256341876,0.000332914044,0.00039338238
1.05,8.91519614e-06,7.64167116e-05,0.000167125331,0.000259649358,0.000340331194,0.000404408909
1.1,9.05768014e-06,7.69086292e-05,0.000168199876,0.000262399901,0.000346892357,0.000414705808
1.15,9.2005894e-06,7.73859569e-05,0.00016918368,0.000264718145,0.00035259373,0.000424261166
1.2,9.34398069e-06,7.7850967e-05,0.000170096027,0.000266706981,0.000357468213,0.000433053572
1.25,9.48790209e-06,7.83054653e-05,0.000170951024,0.00026844506,0.000361593357,0.00044105371
1.3,9.6323946e-06,7.87509078e-05,0.000171759203,0.000269990467,0.000365078862,0.00044823154
1.35,9.77749352e-06,7.91884844e-05,0.000172528585,0.000271385708,0.00036804308,0.000454570713
1.4,9.92322948e-06,7.96191785e-05,0.000173265387,0.000272662028,0.000370594001,0.000460086024
1.45,1.00696294e-05,8.0043812e-05,0.000173974509,0.000273842658,0.000372820766,0.00046483302
1.5,1.02167171e-05,8.04630779e-05,0.000174659867,0.000274945123,0.000374793063,0.000468901603
1.55,1.03645143e-05,8.08775658e-05,0.000175324636,0.000275982845,0.000376564038,0.000472397931
1.6,1.05130412e-05,8.12877819e-05,0.000175971417,0.000276966262,0.000378173928,0.000475426241
1.65,1.06623169e-05,8.16941636e-05,0.00017660237,0.000277903608,0.000379653292,0.000478077907
1.7,1.08123605e-05,8.20970929e-05,0.000177219299,0.000278801469,0.000381025532,0.000480427865
1.75,1.09631914e-05,8.24969058e-05,0.000177823731,0.000279665174,0.000382308769,0.000482535424
1.8,1.11148303e-05,8.28939016e-05,0.000178416966,0.00028049909,0.000383517203,0.000484446781
1.85,1.12673e-05,8.32883502e-05,0.000179000122,0.000281306828,0.0003846621,0.000486197783
1.9,1.14206258e-05,8.3680499e-05,0.000179574164,0.000282091408,0.000385752504,0.000487816337
1.95,1.1574837e-05,8.40705791e-05,0.000180139937,0.000282855375,0.000386795757,0.000489324321
2.0,1.17299674e-05,8.44588116e-05,0.000180698184,0.00028360089,0.000387797882,0.000490739049
2.05,1.18860562e-05,8.48454133e-05,0.000181249568,0.000284329809,0.000388763871,0.000492074354
2.1,1.20431496e-05,8.52306027e-05,0.000181794687,0.00028504373,0.000389697897,0.000493341406
2.15,1.22013012e-05,8.56146054e-05,0.000182334088,0.000285744046,0.000390603479,0.000494549314
2.2,1.23605734e-05,8.59976606e-05,0.000182868285,0.000286431981,0.000391483609,0.000495705575
2.25,1.25210388e-05,8.63800264e-05,0.000183397767,0.000287108617,0.000392340851,0.00049681642
2.3,1.26827812e-05,8.67619864e-05,0.000183923015,0.000287774929,0.000393177416,0.000497887069
2.35,1.28458969e-05,8.71438552e-05,0.000184444511,0.000288431803,0.000393995227,0.000498921931
2.4,1.30104961e-05,8.75259851e-05,0.000184962753,0.00028908006,0.000394795972,0.00049992476
2.45,1.31767043e-05,8.79087718e-05,0.000185478268,0.000289720479,0.000395581144,0.000500898773
2.5,1.33446638e-05,8.82926613e-05,0.000185991622,0.000290353814,0.000396352082,0.00050184675
2.55,1.3514535e-05,8.86781556e-05,0.000186503434,0.000290980817,0.000397110003,0.00050277111
2.6,1.36864983e-05,8.90658196e-05,0.000187014389,0.000291602254,0.000397856029,0.000503673973
2.65,1.38607551e-05,8.94562872e-05,0.000187525249,0.000292218928,0.000398591221,0.000504557219
2.7,1.40375302e-05,8.98502682e-05,0.000188036869,0.000292831696,0.000399316606,0.00050542253
2.75,1.42170728e-05,9.02485542e-05,0.000188550205,0.000293441488,0.000400033197,0.000506271433
2.8,1.43996586e-05,9.06520257e-05,0.000189066332,0.000294049329,0.000400742028,0.000507105341
2.85,1.45855915e-05,9.10616585e-05,0.000189586452,0.000294656356,0.000401444176,0.000507925584
2.9,1.47752052e-05,9.14785301e-05,0.00019011191,0.00029526384,0.000402140787,0.000508733447
2.95,1.49688652e-05,9.19038263e-05,0.000190644207,0.000295873203,0.000402833103,0.000509530202
3.0,1.51669705e-05,9.23388481e-05,0.000191185007,0.00029648604,0.00040352249,0.00051031714
3.05,1.53699555e-05,9.27850176e-05,0.000191736159,0.000297104135,0.000404210462,0.000511095607
3.1,1.55782919e-05,9.32438848e-05,0.0001922997,0.000297729485,0.00040489871,0.000511867036
3.15,1.57924904e-05,9.37171339e-05,0.000192877875,0.000298364314,0.000405589124,0.000512632978
3.2,1.60131026e-05,9.42065895e-05,0.000193473143,0.000299011097,0.000406283824,0.000513395137
3.25,1.62407231e-05,9.47142227e-05,0.000194088194,0.000299672574,0.000406985185,0.000514155403
3.3,1.64759908e-05,9.52421569e-05,0.000194725957,0.000300351775,0.000407695861,0.000514915888
