vds,vb1,vb2,vb3,vb4,vb5,vb6
0.0,-1.97324106e-30,4.68321084e-30,-2.38070008e-19,-2.31001241e-19,-8.92194266e-30,-1.2008688500000001e-29
0.05,3.18799055e-05,0.000130335348,0.000195960521,0.000239647719,0.000269497554,0.000290199424
0.1,5.28783083e-05,0.000245249577,0.000376744836,0.000465232439,0.000526207073,0.000568834751
0.15,6.4948113e-05,0.000345697405,0.000543084575,0.000677306178,0.000770549062,0.000836231429
0.2,7.1194185e-05,0.000432554762,0.000695667491,0.000876396018,0.001002929,0.00109270538
0.25,7.47324059e-05,0.000506619437,0.000835136979,0.00106300397,0.00122373723,0.0013385629
0.3,7.72109333e-05,0.000568613824,0.000962090675,0.00123760688,0.00143334903,0.00157410072
0.35,7.92426726e-05,0.000619206096,0.00107707682,0.00140065583,0.00163212455,0.00179960602
0.4,8.10560077e-05,0.000659105935,0.00118058731,0.00155257475,0.00182040849,0.00201535637
0.45,8.27485589e-05,0.000689325996,0.00127304596,0.00169375801,0.00199852962,0.00222161964
0.5,8.43682699e-05,0.000711503977,0.00135479183,0.00182456622,0.00216679985,0.00241865372
0.55,8.59414705e-05,0.000727772786,0.00142606388,0.00194531941,0.00232551271,0.0026067062
0.6,8.74839221e-05,0.00074012081,0.0014870144,0.00205628639,0.00247494107,0.00278601373
0.65,8.90057101e-05,0.00074997315,0.00153781835,0.00215766873,0.00261533344,0.00295680117
0.7,9.05136349e-05,0.000758221498,0.00157894284,0.00224957971,0.00274690847,0.00311928026
0.75,9.20124779e-05,0.000765403186,0.00161144622,0.00233202325,0.00286984664,0.00327364761
0.8,9.35057169e-05,0.000771846439,0.00163694646,0.00240489429,0.00298427808,0.00342008185
0.85,9.49959535e-05,0.000777758578,0.00165719951,0.00246804875,0.00309026561,0.00355873938
0.9,9.64851798e-05,0.000783275649,0.00167369828,0.0025215002,0.00318778357,0.00368974824
0.95,9.7974952e-05,0.000788490267,0.00168754257,0.00256570414,0.00327669811,0.00381319926
1.0,9.94665061e-05,0.000793467613,0.00169949073,0.00260170738,0.00335676674,0.00392913368
1.05,0.000100960838,0.000798254928,0.00171005623,0.00263097166,0.00342769388,0.00403752684
1.1,0.000102458762,0.000802887338,0.00171958905,0.00265501212,0.00348928469,0.00413826877
1.15,0.000103960949,0.000807391558,0.00172833208,0.00267512969,0.00354168112,0.00423114749
1.2,0.000105467957,0.000811788306,0.00173645768,0.00269232698,0.00358554028,0.00431584981
1.25,0.000106980258,0.000816093931,0.00174409094,0.00270733698,0.00362198792,0.00439200765
1.3,0.00010849825,0.000820321533,0.00175132471,0.00272068579,0.00365236616,0.00445932091
1.35,0.000110022274,0.00082448175,0.00175822927,0.00273275125,0.00367796497,0.00451774933
1.4,0.000111552624,0.000828583328,0.00176485881,0.00274380757,0.0036998713,0.00456768242
1.45,0.000113089556,0.000832633535,0.00177125584,0.00275405679,0.0037189355,0.0046099585
1.5,0.000114633296,0.00083663847,0.00177745417,0.00276365022,0.00373579897,0.00464570461
1.55,0.000116184049,0.000840603299,0.0017834811,0.00277270311,0.00375093921,0.00467610936
1.6,0.000117742001,0.000844532434,0.00178935892,0.00278130464,0.00376471182,0.00470225302
1.65,0.000119307333,0.000848429676,0.00179510602,0.00278952488,0.00377738364,0.00472503307
1.7,0.000120880218,0.000852298331,0.00180073776,0.00279741962,0.00378915725,0.00474515847
1.75,0.000122460838,0.000856141296,0.00180626705,0.00280503386,0.0038001884,0.00476317578
1.8,0.000124049383,0.000859961147,0.00181170488,0.00281240434,0.00381059848,0.00477950276
1.85,0.000125646064,0.000863760201,0.00181706063,0.00281956136,0.00382048329,0.00479445909
1.9,0.00012725112,0.000867540582,0.00182234242,0.00282653015,0.00382991942,0.00480829098
1.95,0.000128864825,0.000871304277,0.00182755731,0.00283333191,0.0038389688,0.00482118981
2.0,0.000130487499,0.000875053193,0.00183271151,0.00283998464,0.00384768206,0.00483330594
2.05,0.000132119521,0.00087878921,0.00183781056,0.00284650369,0.00385610099,0.00484475882
2.1,0.000133761333,0.000882514237,0.00184285945,0.0028529023,0.00386426045,0.00485564435
2.15,0.000135413458,0.000886230266,0.00184786278,0.00285919196,0.00387218973,0.00486604036
2.2,0.000137076509,0.000889939429,0.00185282485,0.00286538275,0.00387991366,0.00487601067
2.25,0.000138751201,0.000893644056,0.00185774983,0.00287148362,0.00388745345,0.00488560807
2.3,0.000140438368,0.000897346731,0.00186264181,0.00287750258,0.00389482738,0.00489487661
2.35,0.000142138972,0.000901050356,0.001867505,0.00288344698,0.00390205129,0.00490385339
2.4,0.00014385412,0.00090475821,0.00187234374,0.00288932365,0.00390913907,0.00491256988
2.45,0.000145585082,0.000908474015,0.00187716273,0.00289513911,0.00391610302,0.00492105296
2.5,0.000147333302,0.000912201995,0.00188196707,0.00290089975,0.00392295414,0.0049293258
2.55,0.000149100415,0.000915946947,0.0018867624,0.00290661203,0.00392970247,0.0049374085
2.6,0.000150888269,0.000919714305,0.00189155505,0.00291228259,0.00393635734,0.00494531866
2.65,0.000152698935,0.000923510206,0.00189635214,0.00291791853,0.00394292758,0.00495307183
2.7,0.000154534732,0.000927341559,0.00190116172,0.0029235275,0.00394942184,0.00496068194
2.75,0.000156398238,0.000931216118,0.00190599286,0.00292911795,0.00395584878,0.00496816167
2.8,0.000158292316,0.000935142545,0.00191085585,0.00293469929,0.0039622173,0.00497552275
2.85,0.000160220129,0.000939130482,0.00191576228,0.00294028209,0.00396853684,0.00498277629
2.9,0.000162185158,0.000943190624,0.00192072518,0.00294587825,0.00397481758,0.00498993308
2.95,0.000164191226,0.000947334784,0.00192575914,0.00295150123,0.00398107069,0.00499700394
3.0,0.000166242515,0.000951575967,0.00193088048,0.0029571662,0.00398730861,0.00500399993
3.05,0.000168343587,0.000955928437,0.00193610736,0.0029628903,0.00399354528,0.00501093274
3.1,0.000170499402,0.000960407785,0.00194145987,0.00296869276,0.0039997964,0.00501781494
3.15,0.000172715341,0.000965030998,0.00194696025,0.00297459517,0.0040060797,0.00502466033
3.2,0.000174997222,0.000969816523,0.00195263294,0.00298062161,0.0040124152,0.00503148421
3.25,0.000177351324,0.000974784333,0.00195850473,0.00298679891,0.00401882545,0.00503830376
3.3,0.000179784405,0.000979955988,0.00196460491,0.00299315679,0.00402533582,0.00504513828
