vds,vb1,vb2,vb3,vb4,vb5,vb6
0.0,2.2720422400000004e-31,-2.10820635e-30,-1.25038058e-21,-8.73651634e-30,-6.562357990000001e-21,-1.20059312e-20
0.05,6.22504419e-06,3.81574016e-05,6.23990629e-05,7.96058383e-05,9.17693929e-05,0.000100300795
0.1,9.66530383e-06,7.19389841e-05,0.000120374079,0.000155014056,0.000179656874,0.000197053963
0.15,1.1033499e-05,0.000101527978,0.00017407561,0.000226344608,0.000263757281,0.000290334654
0.2,1.14903114e-05,0.000127098791,0.000223648111,0.000293713538,0.000344162898,0.000380216311
0.25,1.16995228e-05,0.000148817846,0.000269230002,0.000357233033,0.000420963484,0.000466770683
0.3,1.18343098e-05,0.000166845344,0.000310953698,0.000417011478,0.000494246311,0.000550067843
0.35,1.19383103e-05,0.000181340657,0.000348945469,0.000473153483,0.000564096195,0.000630176221
0.4,1.20262057e-05,0.000192481849,0.000383325068,0.000525759865,0.000630595517,0.000707162608
0.45,1.2104321e-05,0.000200530117,0.000414204927,0.000574927567,0.000693824231,0.000781092184
0.5,1.21758916e-05,0.000205961055,0.000441688616,0.000620749472,0.000753859849,0.000852028516
0.55,1.22427813e-05,0.000209500649,0.000465868167,0.00066331405,0.000810777399,0.000920033567
0.6,1.23061595e-05,0.000211872561,0.000486820094,0.000702704735,0.00086464934,0.000985167684
0.65,1.23668077e-05,0.00021356931,0.000504602252,0.00073899885,0.000915545407,0.00104748958
0.7,1.24252742e-05,0.000214866679,0.00051926287,0.000772265787,0.000963532364,0.0011070563
0.75,1.24819588e-05,0.000215913555,0.000530892499,0.000802563964,0.00100867359,0.00116392312
0.8,1.25371618e-05,0.000216793397,0.000539739211,0.000829935931,0.00105102846,0.00121814349
0.85,1.25911147e-05,0.00021755577,0.000546284981,0.000854401193,0.00109065125,0.00126976882
0.9,1.26439999e-05,0.000218231835,0.000551133003,0.000875948388,0.00112758956,0.00131884826
0.95,1.26959636e-05,0.00021884219,0.000554815628,0.000894535821,0.00116188165,0.00136542828
1.0,1.27471247e-05,0.000219401039,0.00055771321,0.000910124686,0.00119355235,0.00140955214
1.05,1.27975813e-05,0.000219918541,0.000560073565,0.000922771276,0.00122260684,0.00145125893
1.1,1.28474155e-05,0.000220402179,0.000562055045,0.000932735999,0.00124902222,0.0014905823
1.15,1.28966962e-05,0.000220857613,0.00056376037,0.000940481583,0.00127273912,0.00152754831
1.2,1.29454824e-05,0.000221289217,0.000565258079,0.00094653629,0.00129366241,0.00156217231
1.25,1.29938246e-05,0.000221700437,0.000566595351,0.000951360195,0.00131169183,0.00159445418
1.3,1.30417665e-05,0.000222094033,0.000567805652,0.000955298217,0.00132680217,0.00162437161
1.35,1.30893464e-05,0.000222472249,0.000568913385,0.000958592151,0.00133914324,0.00165187164
1.4,1.3136598e-05,0.000222836929,0.000569936783,0.000961408376,0.00134906585,0.00167686345
1.45,1.31835514e-05,0.000223189612,0.00057088977,0.000963862079,0.0013570327,0.00169922134
1.5,1.32302338e-05,0.000223531589,0.000571783187,0.000966034389,0.0013634968,0.00171881506
1.55,1.32766702e-05,0.000223863958,0.000572625614,0.000967983675,0.00136883182,0.00173558047
1.6,1.33228838e-05,0.000224187659,0.000573423948,0.000969752851,0.00137331968,0.00174960529
1.65,1.3368897e-05,0.000224503504,0.000574183809,0.000971374137,0.00137716514,0.00176116036
1.7,1.34147318e-05,0.0002248122,0.000574909827,0.000972872196,0.00138051551,0.00177063993
1.75,1.34604105e-05,0.000225114368,0.000575605863,0.000974266237,0.00138347751,0.00177846156
1.8,1.3505956e-05,0.000225410562,0.000576275163,0.000975571467,0.00138612942,0.00178499437
1.85,1.35513927e-05,0.000225701278,0.000576920487,0.000976800094,0.00138852965,0.00179053338
1.9,1.35967472e-05,0.000225986971,0.000577544196,0.000977962047,0.00139072251,0.00179530279
1.95,1.36420485e-05,0.000226268065,0.000578148329,0.000979065497,0.00139274219,0.00179946972
2.0,1.36873293e-05,0.000226544963,0.000578734664,0.000980117241,0.00139461544,0.00180315844
2.05,1.37326258e-05,0.000226818057,0.000579304761,0.000981122985,0.00139636357,0.001806462
2.1,1.37779791e-05,0.000227087742,0.000579860011,0.000982087564,0.00139800371,0.00180945088
2.15,1.38234355e-05,0.000227354423,0.000580401662,0.000983015109,0.00139954984,0.0018121792
2.2,1.38690472e-05,0.000227618523,0.00058093086,0.000983909178,0.00140101346,0.00181468907
2.25,1.3914873e-05,0.0002278805,0.000581448672,0.000984772864,0.00140240419,0.00181701374
2.3,1.39609788e-05,0.000228140851,0.000581956117,0.000985608874,0.00140373007,0.00181917977
2.35,1.40074385e-05,0.000228400125,0.000582454192,0.00098641961,0.00140499793,0.00182120866
2.4,1.40543343e-05,0.000228658933,0.000582943896,0.000987207223,0.00140621363,0.00182311799
2.45,1.41017578e-05,0.000228917957,0.000583426262,0.000987973672,0.00140738219,0.0018249223
2.5,1.41498103e-05,0.000229177963,0.000583902377,0.000988720775,0.00140850798,0.00182663374
2.55,1.41986033e-05,0.000229439804,0.000584373409,0.000989450253,0.00140959484,0.0018282625
2.6,1.42482594e-05,0.00022970444,0.000584840637,0.000990163779,0.00141064614,0.00182981729
2.65,1.42989129e-05,0.000229972939,0.000585305473,0.000990863021,0.00141166493,0.0018313055
2.7,1.43507101e-05,0.000230246489,0.000585769488,0.000991549686,0.00141265399,0.00183273356
2.75,1.44038102e-05,0.00023052641,0.000586234438,0.000992225564,0.00141361585,0.00183410702
2.8,1.44583854e-05,0.000230814159,0.000586702291,0.000992892572,0.00141455297,0.00183543078
2.85,1.45146221e-05,0.00023111134,0.000587175249,0.000993552798,0.00141546768,0.00183670915
2.9,1.45727207e-05,0.000231419715,0.000587655775,0.000994208543,0.00141636233,0.00183794601
2.95,1.46328966e-05,0.000231741208,0.000588146615,0.000994862367,0.00141723933,0.00183914491
3.0,1.46953804e-05,0.000232077915,0.000588650822,0.00099551713,0.00141810118,0.00184030911
3.05,1.47604183e-05,0.000232432114,0.000589171781,0.000996176035,0.00141895059,0.00184144171
3.1,1.48282729e-05,0.000232806267,0.000589713227,0.000996842671,0.00141979047,0.00184254575
3.15,1.4899223e-05,0.00023320303,0.000590279269,0.000997521053,0.00142062408,0.00184362422
3.2,1.49735644e-05,0.00023362526,0.000590874414,0.000998215666,0.001421455,0.0018446802
3.25,1.50516102e-05,0.000234076018,0.000591503579,0.000998931497,0.00142228725,0.00184571694
3.3,1.51336906e-05,0.000234558579,0.000592172118,0.000999674083,0.00142312535,0.00184673788
