vds,vb1,vb2,vb3,vb4,vb5,vb6
0.0,7.56602397e-33,4.40705236e-32,1.8029702400000001e-31,9.560177780000001e-31,8.91024612e-31,-5.9333935e-31
0.05,8.29788005e-07,3.6700311e-06,5.92987331e-06,7.67661162e-06,9.03176052e-06,1.00859414e-05
0.1,1.38219321e-06,6.96329893e-06,1.14711606e-05,1.4972356e-05,1.7698643e-05,1.98265261e-05
0.15,1.68861667e-06,9.89317592e-06,1.66355335e-05,2.18971853e-05,2.60090577e-05,2.92288496e-05
0.2,1.8216444e-06,1.24725397e-05,2.14342514e-05,2.84607507e-05,3.39711949e-05,3.8299845e-05
0.25,1.87807085e-06,1.47138576e-05,2.58781738e-05,3.4672409e-05,4.15930283e-05,4.70462849e-05
0.3,1.90974473e-06,1.66293404e-05,2.99777737e-05,4.05412302e-05,4.88823207e-05,5.54747847e-05
0.35,1.93223034e-06,1.82312711e-05,3.3743148e-05,4.60760046e-05,5.5846628e-05,6.35918056e-05
0.4,1.95027356e-06,1.95328136e-05,3.71840249e-05,5.12852476e-05,6.24933036e-05,7.14036574e-05
0.45,1.96572035e-06,2.05501495e-05,4.03097652e-05,5.61772035e-05,6.88295016e-05,7.89165011e-05
0.5,1.97945718e-06,2.13076744e-05,4.31293555e-05,6.0759846e-05,7.48621797e-05,8.61363514e-05
0.55,1.99197739e-06,2.184609e-05,4.56513868e-05,6.50408746e-05,8.05981009e-05,9.30690787e-05
0.6,2.00358498e-06,2.22225628e-05,4.78840167e-05,6.90277039e-05,8.60438338e-05,9.97204105e-05
0.65,2.01448134e-06,2.24934482e-05,4.98349362e-05,7.27274414e-05,9.12057502e-05,0.000106095933
0.7,2.02480724e-06,2.26988823e-05,5.15114738e-05,7.61468456e-05,9.60900197e-05,0.00011220109
0.75,2.03466516e-06,2.28628925e-05,5.29213542e-05,7.92922513e-05,0.0001007026,0.000118041183
0.8,2.0441322e-06,2.29993409e-05,5.40754558e-05,8.21694413e-05,0.000105049215,0.000123621368
0.85,2.05326786e-06,2.31164705e-05,5.49937566e-05,8.47834313e-05,0.000109135328,0.000128946652
0.9,2.06211906e-06,2.32194341e-05,5.57105048e-05,8.71381406e-05,0.000112966086,0.000134021881
0.95,2.07072351e-06,2.33116172e-05,5.62698783e-05,8.92359914e-05,0.000116546233,0.000138851727
1.0,2.07911193e-06,2.33953447e-05,5.67142463e-05,9.10777858e-05,0.000119879974,0.00014344067
1.05,2.08730975e-06,2.34722743e-05,5.70766104e-05,9.26639735e-05,0.000122970743,0.000147792955
1.1,2.09533821e-06,2.35436259e-05,5.738009e-05,9.39991036e-05,0.000125820852,0.000151912545
1.15,2.10321527e-06,2.36103215e-05,5.7640335e-05,9.50989475e-05,0.00012843097,0.000155803033
1.2,2.11095625e-06,2.36730742e-05,5.78679791e-05,9.59938471e-05,0.000130799516,0.000159467507
1.25,2.11857429e-06,2.37324463e-05,5.80703937e-05,9.67228854e-05,0.000132922365,0.000162908344
1.3,2.12608083e-06,2.37888887e-05,5.82528192e-05,9.73241563e-05,0.000134794014,0.000166126888
1.35,2.13348584e-06,2.38427686e-05,5.84190781e-05,9.78289292e-05,0.000136411855,0.000169122976
1.4,2.14079809e-06,2.38943885e-05,5.8572026e-05,9.82606928e-05,0.000137783201,0.0001718943
1.45,2.14802539e-06,2.39440007e-05,5.87138433e-05,9.86364831e-05,0.000138929932,0.000174435763
1.5,2.15517475e-06,2.39918178e-05,5.88462273e-05,9.89685911e-05,0.000139885447,0.000176739356
1.55,2.16225253e-06,2.40380208e-05,5.89705223e-05,9.92659679e-05,0.000140686414,0.000178795772
1.6,2.16926463e-06,2.40827645e-05,5.90878093e-05,9.95352354e-05,0.000141365926,0.000180599019
1.65,2.17621654e-06,2.41261832e-05,5.91989696e-05,9.97813809e-05,0.000141950743,0.000182153075
1.7,2.18311358e-06,2.41683934e-05,5.93047306e-05,0.000100008228,0.000142461373,0.000183475971
1.75,2.18996091e-06,2.42094979e-05,5.94056989e-05,0.000100218757,0.000142913214,0.000184597266
1.8,2.19676375e-06,2.42495873e-05,5.95023858e-05,0.000100415331,0.000143317807,0.000185551033
1.85,2.20352744e-06,2.42887431e-05,5.95952256e-05,0.000100599846,0.000143683873,0.000186369512
1.9,2.21025759e-06,2.43270387e-05,5.96845909e-05,0.000100773847,0.000144018077,0.00018707996
1.95,2.21696017e-06,2.43645419e-05,5.97708033e-05,0.000100938605,0.000144325589,0.000187704088
2.0,2.22364166e-06,2.44013157e-05,5.98541431e-05,0.00010109518,0.000144610472,0.000188258731
2.05,2.23030916e-06,2.44374203e-05,5.99348559e-05,0.000101244461,0.000144875964,0.000188756836
2.1,2.23697046e-06,2.44729142e-05,6.00131593e-05,0.000101387203,0.000145124679,0.000189208386
2.15,2.24363424e-06,2.45078558e-05,6.0089248e-05,0.000101524052,0.000145358754,0.000189621139
2.2,2.25031009e-06,2.45423044e-05,6.01632979e-05,0.000101655564,0.000145579951,0.00019000119
2.25,2.25700867e-06,2.4576322e-05,6.02354707e-05,0.000101782221,0.000145789742,0.000190353382
2.3,2.26374183e-06,2.4609974e-05,6.03059175e-05,0.000101904447,0.000145989363,0.000190681605
2.35,2.27052265e-06,2.46433309e-05,6.03747822e-05,0.000102022613,0.000146179868,0.000190989023
2.4,2.2773656e-06,2.46764693e-05,6.04422048e-05,0.000102137052,0.000146362156,0.000191278236
2.45,2.28428663e-06,2.47094733e-05,6.05083253e-05,0.000102248063,0.000146537002,0.0001915514
2.5,2.29130322e-06,2.47424356e-05,6.05732861e-05,0.00010235592,0.00014670508,0.000191810321
2.55,2.29843454e-06,2.47754584e-05,6.06372359e-05,0.000102460877,0.000146866981,0.000192056525
2.6,2.30570149e-06,2.4808655e-05,6.07003324e-05,0.000102563173,0.000147023226,0.000192291313
2.65,2.3131268e-06,2.48421504e-05,6.07627453e-05,0.000102663041,0.000147174277,0.000192515798
2.7,2.32073513e-06,2.48760828e-05,6.08246598e-05,0.000102760712,0.000147320553,0.000192730943
2.75,2.32855312e-06,2.4910604e-05,6.0886279e-05,0.000102856419,0.000147462437,0.000192937588
2.8,2.3366095e-06,2.4945881e-05,6.09478268e-05,0.000102950404,0.000147600283,0.000193136469
2.85,2.34493516e-06,2.49820964e-05,6.10095512e-05,0.000103042923,0.000147734428,0.000193328236
2.9,2.3535632e-06,2.50194498e-05,6.10717262e-05,0.00010313425,0.000147865198,0.00019351347
2.95,2.36252902e-06,2.50581579e-05,6.1134655e-05,0.000103224684,0.000147992916,0.000193692697
3.0,2.37187036e-06,2.50984562e-05,6.11986723e-05,0.000103314553,0.000148117909,0.000193866398
3.05,2.38162741e-06,2.51405991e-05,6.12641464e-05,0.000103404218,0.000148240518,0.000194035023
3.1,2.39184281e-06,2.51848608e-05,6.13314822e-05,0.000103494079,0.000148361104,0.000194199
3.15,2.40256172e-06,2.52315363e-05,6.14011224e-05,0.000103584579,0.000148480054,0.000194358744
3.2,2.4138319e-06,2.52809414e-05,6.14735506e-05,0.000103676209,0.000148597792,0.00019451467
3.25,2.4257037e-06,2.5333414e-05,6.15492927e-05,0.000103769509,0.000148714781,0.000194667204
3.3,2.43823015e-06,2.53893143e-05,6.16289188e-05,0.000103865079,0.000148831533,0.000194816787
